Time,Velocity,GForce,Acceleration,Thrust,TWR,Mass,AltitudeFromTerrain,DownrangeDistance,Latitude,Longitude,Apoapsis,Periapsis,Inclination,OrbitalVelocity,VesselDeltaV,Pressure,
1,7,2.14,11.27,112.83,2.14,5.36,79.65,0,-0.1,-74.56,79,0,0.1,175,1525,100.17,
2,17,2.16,11.44,112.88,2.17,5.31,91.26,0,-0.1,-74.56,105,0,0.1,176,1503,100,
3,29,2.18,11.61,112.96,2.18,5.27,115.78,0,-0.1,-74.56,158,0,0.1,177,1485,99.64,
4,41,2.19,11.76,113.1,2.21,5.22,150.4,0,-0.1,-74.56,234,0,0.1,180,1464,99.13,
5,53,2.21,11.91,113.3,2.23,5.17,197.41,0,-0.1,-74.56,338,0,0.1,183,1444,98.45,
6,65,2.22,12.05,113.49,2.25,5.13,255.06,0,-0.1,-74.56,467,0,0.1,186,1427,97.61,
7,77,2.24,12.19,113.79,2.28,5.08,328.94,0,-0.1,-74.56,633,0,0.1,191,1407,96.54,
8,89,2.25,12.31,114.13,2.31,5.04,410.64,0,-0.1,-74.56,817,0,0.1,196,1387,95.37,
9,102,2.26,12.43,114.45,2.33,4.99,508.27,0,-0.1,-74.56,1039,0,0.1,202,1371,93.98,
10,114,2.27,12.55,114.9,2.37,4.94,614.27,0,-0.1,-74.56,1282,0,0.1,209,1352,92.5,
11,127,2.29,12.68,115.4,2.4,4.9,734.9,0,-0.1,-74.56,1560,0,0.1,216,1333,90.83,
12,139,2.3,12.82,115.84,2.43,4.85,865.44,0,-0.1,-74.56,1863,0,0.1,223,1317,89.06,
13,153,2.32,12.99,116.44,2.47,4.81,1017.49,0,-0.1,-74.56,2218,0,0.1,232,1298,87.03,
14,166,2.33,13.15,117.08,2.51,4.76,1173.65,0,-0.1,-74.56,2586,0,0.1,241,1280,84.98,
15,179,2.35,13.33,117.63,2.54,4.72,1346.06,0.01,-0.1,-74.56,2996,0,0.1,250,1264,82.76,
16,192,2.37,13.51,118.38,2.58,4.67,1527.98,0.01,-0.1,-74.56,3432,0,0.1,259,1245,80.47,
17,206,2.39,13.71,119.15,2.63,4.62,1735.29,0.01,-0.1,-74.56,3934,0,0.1,270,1226,77.93,
18,220,2.41,13.89,119.81,2.66,4.58,1944.24,0.01,-0.1,-74.56,4445,0,0.1,281,1210,75.43,
19,234,2.42,14.08,120.67,2.71,4.53,2171.24,0.01,-0.1,-74.56,5005,0,0.1,292,1190,72.79,
20,248,2.44,14.26,121.55,2.76,4.49,2407.39,0.01,-0.1,-74.56,5593,0,0.1,303,1171,70.12,
21,263,2.46,14.47,122.3,2.8,4.44,2667.78,0.01,-0.1,-74.56,6248,0,0.1,315,1154,67.27,
22,277,2.48,14.69,123.26,2.86,4.39,2937.73,0.01,-0.1,-74.56,6935,0,0.1,327,1133,64.42,
23,292,2.51,14.94,124.22,2.91,4.35,3228.26,0.02,-0.1,-74.56,7683,0,0.1,340,1112,61.46,
24,307,2.52,15.03,125.02,2.96,4.3,3515.93,0.02,-0.1,-74.56,8430,0,0.1,353,1094,58.64,
25,322,2.52,15.06,126.04,3.02,4.26,3843.19,0.02,-0.1,-74.56,9281,0,0.1,366,1071,55.56,
26,337,2.56,15.51,127.05,3.08,4.21,4159.82,0.02,-0.1,-74.56,10117,0,0.1,379,1048,52.7,
27,354,2.65,16.37,127.87,3.12,4.16,4519.17,0.03,-0.1,-74.56,11098,0,0.1,394,1029,49.61,
28,370,2.7,16.91,128.91,3.19,4.12,4874.09,0.03,-0.1,-74.56,12095,0,0.1,409,1004,46.7,
29,388,2.75,17.36,129.92,3.25,4.07,5260.85,0.03,-0.1,-74.56,13203,0,0.1,425,978,43.69,
30,405,2.81,17.94,130.74,3.3,4.03,5649.57,0.03,-0.1,-74.56,14342,0,0.1,441,956,40.82,
31,424,2.87,18.63,131.76,3.37,3.98,6064.13,0.04,-0.1,-74.56,15590,0,0.1,458,928,37.94,
32,443,2.95,19.37,132.74,3.44,3.93,6497.48,0.04,-0.1,-74.56,16935,0,0.1,476,900,35.1,
33,463,3.03,20.14,133.52,3.49,3.89,6950.35,0.04,-0.1,-74.56,18383,0,0.1,494,876,32.32,
34,483,3.11,20.95,134.48,3.56,3.84,7413.87,0.05,-0.1,-74.56,19911,0,0.1,513,844,29.67,
35,505,3.2,21.89,135.39,3.63,3.8,7927.99,0.05,-0.1,-74.56,21665,0,0.1,534,812,26.93,
36,527,3.29,22.8,136.1,3.69,3.75,8423.75,0.05,-0.1,-74.56,23416,0,0.1,555,786,24.49,
37,552,3.39,23.77,136.96,3.76,3.7,8984.76,0.06,-0.1,-74.56,25468,0,0.1,578,751,21.95,
38,575,3.47,24.61,137.76,3.84,3.66,9525.58,0.06,-0.1,-74.56,27511,0,0.1,600,716,19.74,
39,601,3.55,25.42,138.36,3.9,3.61,10137.26,0.07,-0.1,-74.56,29893,0,0.1,626,686,17.51,
40,626,3.62,26.1,139.06,3.97,3.57,10726.42,0.07,-0.1,-74.56,32252,0,0.1,649,648,15.6,
41,653,3.7,26.85,139.69,4.04,3.52,11378.92,0.08,-0.1,-74.57,34937,0,0.1,676,609,13.72,
42,680,3.77,27.61,140.15,4.1,3.48,12045.9,0.08,-0.1,-74.57,37762,0,0.1,702,577,12.04,
43,709,3.85,28.41,140.69,4.18,3.43,12740.66,0.09,-0.1,-74.57,40795,0,0.1,729,535,10.51,
44,738,3.94,29.26,141.16,4.25,3.38,13464.01,0.09,-0.1,-74.57,44052,0,0.1,758,493,9.12,
45,768,4.03,30.18,141.51,4.31,3.34,14232.17,0.1,-0.1,-74.57,47627,0,0.1,787,458,7.84,
46,798,4.11,31.06,141.9,4.39,3.29,14983.99,0.11,-0.1,-74.57,51245,0,0.1,816,413,6.77,
47,830,4.21,32.01,142.23,4.47,3.25,15814.38,0.11,-0.1,-74.57,55378,0,0.1,848,368,5.75,
48,863,4.3,32.95,142.48,4.53,3.2,16661,0.12,-0.1,-74.57,59743,0,0.1,880,331,4.88,
49,896,4.4,33.9,142.74,4.61,3.15,17540.77,0.13,-0.1,-74.57,64443,0,0.1,913,284,4.11,
50,931,4.49,34.86,142.97,4.69,3.11,18454.64,0.14,-0.1,-74.57,69504,0,0.1,947,235,3.44,
51,966,4.59,35.82,143.12,4.75,3.06,19403.56,0.15,-0.1,-74.57,74956,0,0.1,982,195,2.86,
52,1003,4.68,36.78,143.29,4.83,3.02,20388.5,0.15,-0.1,-74.57,80830,0,0.1,1017,146,2.38,
53,1040,4.78,37.74,143.43,4.92,2.97,21410.41,0.16,-0.1,-74.57,87162,0,0.1,1054,94,1.96,
54,1079,4.87,38.72,143.53,4.99,2.92,22470.26,0.17,-0.1,-74.57,93991,0,0.1,1092,52,1.6,
55,1113,3.73,27.56,143.63,5.08,2.88,23568.78,0.19,-0.1,-74.58,100603,0,0.1,1126,0,1.3,
56,1103,0.08,9.81,0,0,2.88,24677.03,0.2,-0.1,-74.58,100470,0,0.1,1116,0,1.05,
57,1094,0.07,9.62,0,0,2.88,25775.51,0.21,-0.1,-74.58,100365,0,0.1,1107,0,0.86,
58,1084,0.05,9.46,0,0,2.88,26864.41,0.22,-0.1,-74.58,100282,0,0.1,1097,0,0.71,
59,1075,0.04,9.33,0,0,2.88,27943.88,0.23,-0.1,-74.58,100216,0,0.1,1088,0,0.58,
60,1066,0.03,9.22,0,0,2.88,29014.04,0.25,-0.1,-74.58,100163,0,0.1,1079,0,0.48,
61,1057,0.03,9.12,0,0,2.88,30075.01,0.26,-0.1,-74.58,100121,0,0.1,1070,0,0.4,
62,1048,0.02,9.04,0,0,2.88,31105.92,0.27,-0.1,-74.58,100088,0,0.1,1061,0,0.33,
63,1039,0.02,8.97,0,0,2.88,32169.7,0.29,-0.1,-74.59,100060,0,0.1,1052,0,0.28,
64,1030,0.02,8.91,0,0,2.88,33203.57,0.3,-0.1,-74.59,100038,0,0.1,1043,0,0.24,
65,1021,0.01,8.86,0,0,2.88,34228.54,0.32,-0.1,-74.59,100020,0,0.1,1034,0,0.2,
66,1012,0.01,8.81,0,0,2.88,35244.66,0.34,-0.1,-74.59,100005,0,0.1,1026,0,0.17,
67,1003,0.01,8.77,0,0,2.88,36251.97,0.35,-0.1,-74.59,99992,0,0.1,1017,0,0.14,
68,995,0.01,8.73,0,0,2.88,37230.64,0.37,-0.1,-74.59,99982,0,0.1,1008,0,0.12,
69,986,0.01,8.69,0,0,2.88,38260.07,0.39,-0.1,-74.59,99974,0,0.1,999,0,0.1,
70,977,0.01,8.65,0,0,2.88,39201.98,0.41,-0.1,-74.6,99967,0,0.1,991,0,0.09,
71,968,0,8.62,0,0,2.88,40194.03,0.43,-0.1,-74.6,99961,0,0.1,982,0,0.08,
72,960,0,8.59,0,0,2.88,41157.92,0.44,-0.1,-74.6,99956,0,0.1,974,0,0.07,
73,951,0,8.56,0,0,2.88,42113.23,0.46,-0.1,-74.6,99951,0,0.1,965,0,0.06,
74,943,0,8.53,0,0,2.88,43059.99,0.48,-0.1,-74.6,99948,0,0.1,957,0,0.05,
75,934,0,8.5,0,0,2.88,44016.91,0.51,-0.1,-74.61,99944,0,0.1,948,0,0.04,
76,926,0,8.47,0,0,2.88,44909.46,0.53,-0.1,-74.61,99942,0,0.1,940,0,0.04,
77,917,0,8.44,0,0,2.88,45867.59,0.55,-0.1,-74.61,99939,0,0.1,932,0,0.03,
78,909,0,8.42,0,0,2.88,46743.91,0.57,-0.1,-74.61,99937,0,0.1,924,0,0.03,
79,900,0,8.39,0,0,2.88,47684.5,0.59,-0.1,-74.61,99935,0,0.1,915,0,0.02,
80,892,0,8.37,0,0,2.88,48544.69,0.61,-0.1,-74.62,99934,0,0.1,907,0,0.02,
81,884,0,8.34,0,0,2.88,49467.86,0.64,-0.1,-74.62,99932,0,0.1,899,0,0.02,
82,876,0,8.32,0,0,2.88,50312.01,0.66,-0.1,-74.62,99931,0,0.1,891,0,0.01,
83,867,0,8.3,0,0,2.88,51217.85,0.69,-0.1,-74.62,99930,0,0.1,882,0,0.01,
84,859,0,8.27,0,0,2.88,52046.05,0.71,-0.1,-74.63,99929,0,0.1,874,0,0.01,
85,851,0,8.25,0,0,2.88,52917.67,0.73,-0.1,-74.63,99928,0,0.1,866,0,0.01,
86,843,0,8.23,0,0,2.88,53763.85,0.76,-0.1,-74.63,99928,0,0.1,858,0,0.01,
87,834,0,8.21,0,0,2.88,54601.82,0.79,-0.1,-74.63,99927,0,0.1,850,0,0.01,
88,826,0,8.19,0,0,2.88,55431.57,0.81,-0.1,-74.64,99926,0,0.1,842,0,0.01,
89,818,0,8.16,0,0,2.88,56253.15,0.84,-0.1,-74.64,99926,0,0.1,834,0,0,
90,810,0,8.14,0,0,2.88,57066.55,0.86,-0.1,-74.64,99925,0,0.1,826,0,0,
91,802,0,8.12,0,0,2.88,57871.82,0.89,-0.1,-74.64,99925,0,0.1,817,0,0,
92,794,0,8.1,0,0,2.88,58653.1,0.92,-0.1,-74.65,99925,0,0.1,810,0,0,
93,786,0,8.08,0,0,2.88,59473.7,0.95,-0.1,-74.65,99924,0,0.1,801,0,0,
94,778,0,8.06,0,0,2.88,60238.96,0.97,-0.1,-74.65,99924,0,0.1,794,0,0,
95,770,0,8.04,0,0,2.88,61011.85,1,-0.1,-74.65,99924,0,0.1,786,0,0,
96,762,0,8.03,0,0,2.88,61776.7,1.03,-0.1,-74.66,99923,0,0.1,778,0,0,
97,753,0,8.01,0,0,2.88,62548.58,1.06,-0.1,-74.66,99923,0,0.1,770,0,0,
98,746,0,7.99,0,0,2.88,63267.44,1.09,-0.1,-74.66,99923,0,0.1,762,0,0,
99,737,0,7.97,0,0,2.88,64037.9,1.12,-0.1,-74.66,99923,0,0.1,754,0,0,
100,730,0,7.95,0,0,2.88,64741.44,1.15,-0.1,-74.67,99923,0,0.1,747,0,0,
101,722,0,7.93,0,0,2.88,65495.33,1.18,-0.1,-74.67,99922,0,0.1,738,0,0,
102,714,0,7.92,0,0,2.88,66183.62,1.21,-0.1,-74.67,99922,0,0.1,731,0,0,
103,706,0,7.9,0,0,2.88,66906.92,1.24,-0.1,-74.68,99922,0,0.1,723,0,0,
104,698,0,7.88,0,0,2.88,67608.06,1.27,-0.1,-74.68,99922,0,0.1,715,0,0,
105,690,0,7.87,0,0,2.88,68301.32,1.3,-0.1,-74.68,99922,0,0.1,708,0,0,
106,683,0,7.85,0,0,2.88,68973.07,1.34,-0.1,-74.69,99922,0,0.1,700,0,0,
107,674,0,7.83,0,0,2.88,69677.71,1.37,-0.1,-74.69,99922,0,0.1,692,0,0,
108,667,0,7.82,0,0,2.88,70320.62,1.4,-0.1,-74.69,99922,0,0.1,685,0,0,
109,659,0,7.8,0,0,2.88,71008.96,1.43,-0.1,-74.69,99921,0,0.1,677,0,0,
110,651,0,7.79,0,0,2.88,71649.87,1.47,-0.1,-74.7,99921,0,0.1,669,0,0,
111,644,0,7.77,0,0,2.88,72296.15,1.5,-0.1,-74.7,99921,0,0.1,662,0,0,
112,636,0,7.76,0,0,2.88,72921.95,1.53,-0.1,-74.7,99921,0,0.1,654,0,0,
113,628,0,7.74,0,0,2.88,73577.92,1.57,-0.1,-74.71,99921,0,0.1,646,0,0,
114,621,0,7.73,0,0,2.88,74175.99,1.6,-0.1,-74.71,99921,0,0.1,639,0,0,
115,613,0,7.71,0,0,2.88,74815.86,1.64,-0.1,-74.71,99921,0,0.1,631,0,0,
116,605,0,7.7,0,0,2.88,75399.1,1.67,-0.1,-74.72,99921,0,0.1,624,0,0,
117,597,0,7.69,0,0,2.88,76022.93,1.71,-0.1,-74.72,99921,0,0.1,616,0,0,
118,590,0,7.67,0,0,2.88,76591.38,1.74,-0.1,-74.72,99921,0,0.1,609,0,0,
119,582,0,7.66,0,0,2.88,77199.23,1.78,-0.1,-74.73,99920,0,0.1,602,0,0,
120,575,0,7.65,0,0,2.88,77752.96,1.81,-0.1,-74.73,99920,0,0.1,594,0,0,
121,567,0,7.63,0,0,2.88,78344.87,1.85,-0.1,-74.73,99920,0,0.1,587,0,0,
122,559,0,7.62,0,0,2.88,78883.92,1.88,-0.1,-74.74,99920,0,0.1,580,0,0,
123,552,0,7.61,0,0,2.88,79459.96,1.92,-0.1,-74.74,99920,0,0.1,572,0,0,
124,544,0,7.6,0,0,2.88,79995.23,1.96,-0.1,-74.74,99920,0,0.1,565,0,0,
125,537,0,7.58,0,0,2.88,80533.9,1.99,-0.1,-74.75,99920,0,0.1,557,0,0,
126,529,0,7.57,0,0,2.88,81064.98,2.03,-0.1,-74.75,99920,0,0.1,550,0,0,
127,522,0,7.56,0,0,2.88,81588.48,2.07,-0.1,-74.76,99920,0,0.1,543,0,0,
128,514,0,7.55,0,0,2.88,82104.41,2.11,-0.1,-74.76,99920,0,0.1,536,0,0,
129,507,0,7.54,0,0,2.88,82612.79,2.14,-0.1,-74.76,99920,0,0.1,528,0,0,
130,499,0,7.53,0,0,2.88,83103.69,2.18,-0.1,-74.77,99919,0,0.1,521,0,0,
131,491,0,7.52,0,0,2.88,83616.72,2.22,-0.1,-74.77,99919,0,0.1,514,0,0,
132,484,0,7.5,0,0,2.88,84083.08,2.26,-0.1,-74.77,99919,0,0.1,507,0,0,
133,477,0,7.49,0,0,2.88,84570.99,2.3,-0.1,-74.78,99919,0,0.1,499,0,0,
134,469,0,7.48,0,0,2.88,85041.76,2.33,-0.1,-74.78,99919,0,0.1,492,0,0,
135,462,0,7.47,0,0,2.88,85505.04,2.37,-0.1,-74.78,99919,0,0.1,485,0,0,
136,454,0,7.46,0,0,2.88,85960.84,2.41,-0.1,-74.79,99919,0,0.1,478,0,0,
137,447,0,7.45,0,0,2.88,86409.17,2.45,-0.1,-74.79,99919,0,0.1,471,0,0,
138,440,0,7.44,0,0,2.88,86850.04,2.49,-0.1,-74.8,99919,0,0.1,464,0,0,
139,432,0,7.43,0,0,2.88,87283.46,2.53,-0.1,-74.8,99919,0,0.1,457,0,0,
140,425,0,7.43,0,0,2.88,87709.44,2.57,-0.1,-74.8,99919,0,0.1,450,0,0,
141,417,0,7.42,0,0,2.88,88127.98,2.61,-0.1,-74.81,99919,0,0.1,443,0,0,
142,410,0,7.41,0,0,2.88,88539.1,2.65,-0.1,-74.81,99918,0,0.1,436,0,0,
143,403,0,7.4,0,0,2.88,88942.81,2.69,-0.1,-74.81,99918,0,0.1,429,0,0,
144,395,0,7.39,0,0,2.88,89339.11,2.73,-0.1,-74.82,99918,0,0.1,422,0,0,
145,388,0,7.38,0,0,2.88,89728.01,2.77,-0.1,-74.82,99918,0,0.1,415,0,0,
146,381,0,7.37,0,0,2.88,90109.53,2.81,-0.1,-74.83,99918,0,0.1,408,0,0,
147,373,0,7.36,0,0,2.88,90483.66,2.85,-0.1,-74.83,99918,0,0.1,401,0,0,
148,366,0,7.36,0,0,2.88,90850.42,2.89,-0.1,-74.83,99918,0,0.1,395,0,0,
149,359,0,7.35,0,0,2.88,91209.82,2.93,-0.1,-74.84,99918,0,0.1,388,0,0,
150,352,0,7.34,0,0,2.88,91561.86,2.97,-0.1,-74.84,99918,0,0.1,381,0,0,
151,344,0,7.33,0,0,2.88,91913.36,3.02,-0.1,-74.85,99918,0,0.1,374,0,0,
152,337,0,7.33,0,0,2.88,92237.22,3.06,-0.1,-74.85,99918,0,0.1,368,0,0,
153,330,0,7.32,0,0,2.88,92580.43,3.1,-0.1,-74.85,99918,0,0.1,361,0,0,
154,323,0,7.31,0,0,2.88,92890.2,3.14,-0.1,-74.86,99918,0,0.1,354,0,0,
155,315,0,7.31,0,0,2.88,93218.17,3.18,-0.1,-74.86,99917,0,0.1,347,0,0,
156,308,0,7.3,0,0,2.88,93513.89,3.22,-0.1,-74.87,99917,0,0.1,341,0,0,
157,301,0,7.29,0,0,2.88,93826.66,3.27,-0.1,-74.87,99917,0,0.1,334,0,0,
158,294,0,7.29,0,0,2.88,94108.36,3.31,-0.1,-74.87,99917,0,0.1,328,0,0,
159,287,0,7.28,0,0,2.88,94405.94,3.35,-0.1,-74.88,99917,0,0.1,321,0,0,
160,280,0,7.28,0,0,2.88,94679.14,3.39,-0.1,-74.88,99917,0,0.1,315,0,0,
161,272,0,7.27,0,0,2.88,94950.7,3.44,-0.1,-74.89,99917,0,0.1,309,0,0,
162,265,0,7.26,0,0,2.88,95214.98,3.48,-0.1,-74.89,99917,0,0.1,302,0,0,
163,258,0,7.26,0,0,2.88,95471.99,3.52,-0.1,-74.89,99917,0,0.1,296,0,0,
164,251,0,7.25,0,0,2.88,95721.73,3.56,-0.1,-74.9,99917,0,0.1,290,0,0,
165,244,0,7.25,0,0,2.88,95964.21,3.61,-0.1,-74.9,99917,0,0.1,284,0,0,
166,237,0,7.24,0,0,2.88,96199.44,3.65,-0.1,-74.91,99917,0,0.1,278,0,0,
167,230,0,7.24,0,0,2.88,96427.41,3.69,-0.1,-74.91,99917,0,0.1,272,0,0,
168,223,0,7.23,0,0,2.88,96648.13,3.74,-0.1,-74.91,99916,0,0.1,266,0,0,
169,216,0,7.23,0,0,2.88,96861.61,3.78,-0.1,-74.92,99916,0,0.1,260,0,0,
170,209,0,7.22,0,0,2.88,97067.85,3.82,-0.1,-74.92,99916,0,0.1,254,0,0,
171,202,0,7.22,0,0,2.88,97266.85,3.87,-0.1,-74.93,99916,0,0.1,248,0,0,
172,195,0,7.22,0,0,2.88,97458.63,3.91,-0.1,-74.93,99916,0,0.1,242,0,0,
173,188,0,7.21,0,0,2.88,97643.17,3.95,-0.1,-74.94,99916,0,0.1,237,0,0,
174,181,0,7.21,0,0,2.88,97820.5,4,-0.1,-74.94,99916,0,0.1,231,0,0,
175,174,0,7.21,0,0,2.88,97990.61,4.04,-0.1,-74.94,99916,0,0.1,226,0,0,
176,167,0,7.2,0,0,2.88,98153.5,4.08,-0.1,-74.95,99916,0,0.1,221,0,0,
177,160,0,7.2,0,0,2.88,98309.17,4.13,-0.1,-74.95,99916,0,0.1,216,0,0,
178,154,0,7.2,0,0,2.88,98457.64,4.17,-0.1,-74.96,99916,0,0.1,210,0,0,
179,147,0,7.19,0,0,2.88,98598.91,4.21,-0.1,-74.96,99916,0,0.1,206,0,0,
180,140,0,7.19,0,0,2.88,98732.97,4.26,-0.1,-74.96,99916,0,0.1,201,0,0,
181,134,0,7.19,0,0,2.88,98859.83,4.3,-0.1,-74.97,99915,0,0.1,196,0,0,
182,127,0,7.18,0,0,2.88,98979.49,4.35,-0.1,-74.97,99915,0,0.1,192,0,0,
183,120,0,7.18,0,0,2.88,99091.96,4.39,-0.1,-74.98,99915,0,0.1,187,0,0,
184,114,0,7.18,0,0,2.88,99197.23,4.43,-0.1,-74.98,99915,0,0.1,183,0,0,
185,108,0,7.18,0,0,2.88,99297.2,4.48,-0.1,-74.99,99915,0,0.1,179,0,0,
186,102,0,7.18,0,0,2.88,99384.46,4.52,-0.1,-74.99,99915,0,0.1,176,0,0,
187,95,0,7.17,0,0,2.88,99469.92,4.57,-0.1,-74.99,99915,0,0.1,172,0,0,
188,89,0,7.17,0,0,2.88,99546.44,4.61,-0.1,-75,99915,0,0.1,169,0,0,
189,84,0,7.17,0,0,2.88,99615.78,4.66,-0.1,-75,99915,0,0.1,166,0,0,
190,78,0,7.17,0,0,2.88,99677.94,4.7,-0.1,-75.01,99915,0,0.1,163,0,0,
191,73,0,7.17,0,0,2.88,99732.91,4.74,-0.1,-75.01,99915,0,0.1,161,0,0,
192,68,0,7.17,0,0,2.88,99780.71,4.79,-0.1,-75.01,99915,0,0.1,159,0,0,
193,64,0,7.17,0,0,2.88,99821.33,4.83,-0.1,-75.02,99915,0,0.1,157,0,0,
194,60,0,7.17,0,0,2.88,99854.77,4.88,-0.1,-75.02,99915,0,0.1,155,0,0,
195,57,0,7.17,0,0,2.88,99881.03,4.92,-0.1,-75.03,99914,0,0.1,154,0,0,
196,54,0,7.17,0,0,2.88,99899.8,4.97,-0.1,-75.03,99914,0,0.1,153,0,0,
197,52,0,7.16,0,0,2.88,99912.19,5.01,-0.1,-75.04,99914,0,0.1,152,0,0,
198,52,0,7.16,0,0,2.88,99916.73,5.05,-0.1,-75.04,99914,0,0.1,152,0,0,
199,52,0,7.16,0,0,2.88,99914.31,5.1,-0.1,-75.04,99914,0,0.1,152,0,0,
200,53,0,7.16,0,0,2.88,99904.96,5.14,-0.1,-75.05,99914,0,0.1,153,0,0,
201,56,0,7.17,0,0,2.88,99887.49,5.19,-0.1,-75.05,99914,0,0.1,154,0,0,
202,59,0,7.17,0,0,2.88,99864.48,5.23,-0.1,-75.06,99914,0,0.1,155,0,0,
203,62,0,7.17,0,0,2.88,99832.08,5.28,-0.1,-75.06,99914,0,0.1,156,0,0,
204,67,0,7.17,0,0,2.88,99794.45,5.32,-0.1,-75.07,99914,0,0.1,158,0,0,
205,71,0,7.17,0,0,2.88,99747.97,5.37,-0.1,-75.07,99914,0,0.1,160,0,0,
206,76,0,7.17,0,0,2.88,99697.39,5.41,-0.1,-75.07,99914,0,0.1,162,0,0,
207,82,0,7.17,0,0,2.88,99635.13,5.46,-0.1,-75.08,99914,0,0.1,165,0,0,
208,87,0,7.17,0,0,2.88,99570.76,5.5,-0.1,-75.08,99914,0,0.1,168,0,0,
209,93,0,7.17,0,0,2.88,99493.56,5.54,-0.1,-75.09,99913,0,0.1,171,0,0,
210,99,0,7.17,0,0,2.88,99415.41,5.59,-0.1,-75.09,99913,0,0.1,174,0,0,
211,106,0,7.18,0,0,2.88,99323.26,5.63,-0.1,-75.1,99913,0,0.1,178,0,0,
212,112,0,7.18,0,0,2.88,99231.3,5.67,-0.1,-75.1,99913,0,0.1,182,0,0,
213,118,0,7.18,0,0,2.88,99124.21,5.72,-0.1,-75.1,99913,0,0.1,186,0,0,
214,125,0,7.18,0,0,2.88,99018.44,5.76,-0.1,-75.11,99913,0,0.1,190,0,0,
215,131,0,7.19,0,0,2.88,98898.8,5.81,-0.1,-75.11,99913,0,0.1,195,0,0,
216,138,0,7.19,0,0,2.88,98774.24,5.85,-0.1,-75.12,99913,0,0.1,199,0,0,
217,145,0,7.19,0,0,2.88,98642.48,5.9,-0.1,-75.12,99913,0,0.1,204,0,0,
218,151,0,7.19,0,0,2.88,98503.51,5.94,-0.1,-75.12,99913,0,0.1,209,0,0,
219,158,0,7.2,0,0,2.88,98357.35,5.98,-0.1,-75.13,99913,0,0.1,214,0,0,
220,165,0,7.2,0,0,2.88,98203.97,6.03,-0.1,-75.13,99913,0,0.1,219,0,0,
221,172,0,7.2,0,0,2.88,98043.38,6.07,-0.1,-75.14,99913,0,0.1,224,0,0,
222,179,0,7.21,0,0,2.88,97879,6.11,-0.1,-75.14,99913,0,0.1,229,0,0,
223,186,0,7.21,0,0,2.88,97696.98,6.16,-0.1,-75.15,99912,0,0.1,235,0,0,
224,192,0,7.21,0,0,2.88,97522.03,6.2,-0.1,-75.15,99912,0,0.1,240,0,0,
225,200,0,7.22,0,0,2.88,97324.98,6.25,-0.1,-75.15,99912,0,0.1,246,0,0,
226,206,0,7.22,0,0,2.88,97132.15,6.29,-0.1,-75.16,99912,0,0.1,252,0,0,
227,213,0,7.23,0,0,2.88,96928.22,6.33,-0.1,-75.16,99912,0,0.1,258,0,0,
228,221,0,7.23,0,0,2.88,96717.05,6.38,-0.1,-75.17,99912,0,0.1,264,0,0,
229,228,0,7.23,0,0,2.88,96494.2,6.42,-0.1,-75.17,99912,0,0.1,270,0,0,
230,234,0,7.24,0,0,2.88,96277.57,6.46,-0.1,-75.17,99912,0,0.1,275,0,0,
231,242,0,7.24,0,0,2.88,96035.35,6.51,-0.1,-75.18,99912,0,0.1,282,0,0,
232,249,0,7.25,0,0,2.88,95804.79,6.55,-0.1,-75.18,99912,0,0.1,288,0,0,
233,256,0,7.25,0,0,2.88,95552.49,6.59,-0.1,-75.19,99912,0,0.1,294,0,0,
234,263,0,7.26,0,0,2.88,95297.8,6.63,-0.1,-75.19,99912,0,0.1,300,0,0,
235,270,0,7.27,0,0,2.88,95035.84,6.68,-0.1,-75.2,99912,0,0.1,307,0,0,
236,277,0,7.27,0,0,2.88,94766.6,6.72,-0.1,-75.2,99911,0,0.1,313,0,0,
237,284,0,7.28,0,0,2.88,94490.08,6.76,-0.1,-75.2,99911,0,0.1,319,0,0,
238,291,0,7.28,0,0,2.88,94212.02,6.8,-0.1,-75.21,99911,0,0.1,326,0,0,
239,299,0,7.29,0,0,2.88,93915.17,6.85,-0.1,-75.21,99911,0,0.1,332,0,0,
240,306,0,7.3,0,0,2.88,93616.77,6.89,-0.1,-75.22,99911,0,0.1,339,0,0,
241,313,0,7.3,0,0,2.88,93304.87,6.93,-0.1,-75.22,99911,0,0.1,346,0,0,
242,320,0,7.31,0,0,2.88,93004.36,6.97,-0.1,-75.22,99911,0,0.1,352,0,0,
243,327,0,7.31,0,0,2.88,92677.69,7.01,-0.1,-75.23,99911,0,0.1,359,0,0,
244,335,0,7.32,0,0,2.88,92356.64,7.05,-0.1,-75.23,99911,0,0.1,365,0,0,
245,342,0,7.33,0,0,2.88,92008.24,7.1,-0.1,-75.24,99911,0,0.1,372,0,0,
246,349,0,7.34,0,0,2.88,91672.67,7.14,-0.1,-75.24,99911,0,0.1,379,0,0,
247,357,0,7.34,0,0,2.88,91315.91,7.18,-0.1,-75.24,99911,0,0.1,386,0,0,
248,364,0,7.35,0,0,2.88,90973.15,7.22,-0.1,-75.25,99911,0,0.1,392,0,0,
249,371,0,7.36,0,0,2.88,90601.52,7.26,-0.1,-75.25,99910,0,0.1,399,0,0,
250,378,0,7.37,0,0,2.88,90229.74,7.3,-0.1,-75.25,99910,0,0.1,406,0,0,
251,386,0,7.38,0,0,2.88,89850.59,7.34,-0.1,-75.26,99910,0,0.1,413,0,0,
252,393,0,7.38,0,0,2.88,89464.04,7.38,-0.1,-75.26,99910,0,0.1,420,0,0,
253,400,0,7.39,0,0,2.88,89070.1,7.42,-0.1,-75.27,99910,0,0.1,427,0,0,
254,408,0,7.4,0,0,2.88,88668.76,7.46,-0.1,-75.27,99910,0,0.1,434,0,0,
255,415,0,7.41,0,0,2.88,88260.01,7.5,-0.1,-75.27,99910,0,0.1,441,0,0,
256,422,0,7.42,0,0,2.88,87843.83,7.54,-0.1,-75.28,99910,0,0.1,447,0,0,
257,430,0,7.43,0,0,2.88,87420.23,7.58,-0.1,-75.28,99910,0,0.1,455,0,0,
258,437,0,7.44,0,0,2.88,86989.19,7.62,-0.1,-75.29,99910,0,0.1,462,0,0,
259,445,0,7.45,0,0,2.88,86541.85,7.66,-0.1,-75.29,99910,0,0.1,469,0,0,
260,452,0,7.46,0,0,2.88,86113.74,7.7,-0.1,-75.29,99910,0,0.1,476,0,0,
261,459,0,7.47,0,0,2.88,85642.19,7.74,-0.1,-75.3,99909,0,0.1,483,0,0,
262,467,0,7.48,0,0,2.88,85190.44,7.78,-0.1,-75.3,99909,0,0.1,490,0,0,
263,474,0,7.49,0,0,2.88,84722.06,7.82,-0.1,-75.3,99909,0,0.1,497,0,0,
264,482,0,7.5,0,0,2.88,84246.18,7.86,-0.1,-75.31,99909,0,0.1,504,0,0,
