Time,Velocity,GForce,Acceleration,Thrust,TWR,Mass,AltitudeFromTerrain,DownrangeDistance,Latitude,Longitude,Apoapsis,Periapsis,Inclination,OrbitalVelocity,VesselDeltaV,Pressure
1,7,2.14,11.27,112.84,2.15,5.36,79.65,0,-0.1,-74.56,79,0,0.1,175,1523,38.59409231
2,18,2.16,11.44,112.87,2.16,5.31,91.62,0,-0.1,-74.56,105,0,0.1,176,1506,92.41622573
3,30,2.18,11.61,112.97,2.18,5.26,116.37,0,-0.1,-74.56,159,0,0.1,177,1484,51.29286673
4,41,2.19,11.76,113.11,2.21,5.22,150.4,0,-0.1,-74.56,234,0,0.1,180,1463,68.08905769
5,53,2.21,11.92,113.31,2.23,5.17,199.54,0,-0.1,-74.56,343,0,0.1,183,1442,78.68340202
6,65,2.22,12.06,113.51,2.25,5.13,256.36,0,-0.1,-74.56,470,0,0.1,186,1426,78.36664199
7,77,2.24,12.19,113.81,2.28,5.08,328.94,0,-0.1,-74.56,633,0,0.1,191,1406,61.55556827
8,89,2.25,12.31,114.09,2.31,5.04,410.64,0,-0.1,-74.56,817,0,0.1,196,1390,48.38234518
9,102,2.24,12.39,114.48,2.34,4.99,508.09,0,-0.1,-74.56,1036,0,0.1,204,1370,64.67314919
10,113,2.26,13.48,114.93,2.37,4.94,613.23,0.01,-0.1,-74.56,1264,0,0.1,216,1351,0.711041249
11,125,2.26,13.28,115.32,2.4,4.9,734.03,0.02,-0.1,-74.56,1523,0,0.1,228,1335,83.6935857
12,137,2.28,14.07,115.85,2.43,4.85,860.84,0.04,-0.1,-74.55,1792,0,0.11,241,1316,14.68336337
13,150,2.31,13.37,116.43,2.47,4.81,1004.4,0.07,-0.1,-74.55,2115,0,0.11,253,1297,36.38494601
14,163,2.31,13.54,116.92,2.5,4.76,1154.18,0.1,-0.1,-74.55,2453,0,0.12,265,1281,12.31736267
15,176,2.33,14.1,117.58,2.54,4.71,1321.77,0.14,-0.1,-74.54,2815,0,0.12,279,1262,95.50584419
16,189,2.34,14.78,118.28,2.58,4.67,1494.25,0.19,-0.1,-74.54,3201,0,0.13,293,1242,56.19578129
17,204,2.38,14.46,118.87,2.62,4.62,1685.86,0.25,-0.1,-74.53,3638,0,0.14,307,1227,69.86272128
18,217,2.38,14.97,119.64,2.66,4.58,1881.73,0.32,-0.1,-74.53,4075,0,0.14,321,1207,50.176382
19,232,2.41,15.05,120.45,2.71,4.53,2097.89,0.39,-0.1,-74.52,4575,0,0.15,336,1187,13.35505126
20,247,2.44,15.22,121.12,2.75,4.49,2317.72,0.48,-0.1,-74.51,5087,0,0.15,350,1170,12.85456458
21,262,2.45,15.42,121.98,2.8,4.44,2559.48,0.57,-0.1,-74.5,5658,0,0.16,365,1150,17.12658772
22,277,2.46,15.45,122.88,2.85,4.39,2804.37,0.67,-0.1,-74.49,6242,0,0.17,380,1128,27.51832643
23,292,2.47,15.53,123.61,2.89,4.35,3072.53,0.78,-0.1,-74.48,6887,0,0.17,395,1110,33.46088771
24,307,2.47,15.46,124.53,2.95,4.3,3343.07,0.89,-0.1,-74.47,7542,0,0.18,410,1088,71.10563664
25,323,2.45,15.22,125.49,3,4.26,3638.04,1.02,-0.1,-74.46,8255,0,0.18,425,1065,20.41229137
26,338,2.47,15.42,126.26,3.05,4.21,3934.31,1.15,-0.1,-74.45,8979,0,0.19,439,1046,0.628860631
27,354,2.54,16.05,127.22,3.11,4.16,4256.52,1.29,-0.1,-74.43,9790,0,0.19,455,1022,88.69753673
28,370,2.59,16.46,128.2,3.17,4.12,4580.06,1.43,-0.1,-74.42,10630,0,0.19,470,996,74.47176241
29,387,2.62,16.77,128.98,3.22,4.07,4931.83,1.59,-0.1,-74.41,11560,0,0.2,487,975,48.35082517
30,403,2.67,17.21,129.93,3.29,4.03,5284.63,1.75,-0.1,-74.39,12513,0,0.2,503,948,4.170579993
31,421,2.73,17.82,130.9,3.35,3.98,5667.8,1.92,-0.1,-74.37,13577,0,0.21,520,920,59.14408409
32,439,2.8,18.5,131.67,3.4,3.93,6051.92,2.09,-0.1,-74.36,14677,0,0.21,537,897,58.81326115
33,459,2.87,19.24,132.6,3.47,3.89,6469.05,2.28,-0.1,-74.34,15909,0,0.21,555,867,1.922140462
34,486,4.49,35.06,199.3,5.3,3.83,6889.38,2.47,-0.1,-74.32,17562,0,0.22,582,828,8.69969734
35,525,4.84,38.59,200.41,5.41,3.76,7359.89,2.68,-0.1,-74.3,19919,0,0.22,619,788,31.00405275
36,564,5.01,40.22,201.79,5.56,3.7,7847.26,2.89,-0.1,-74.28,22470,0,0.23,656,736,16.77299065
37,606,5.17,41.82,203.18,5.71,3.63,8392.86,3.13,-0.1,-74.26,25455,0,0.23,697,681,51.56901312
38,648,5.3,43.11,204.27,5.83,3.56,8955.28,3.38,-0.1,-74.24,28657,0,0.24,738,636,93.23155137
39,693,5.45,44.6,205.57,5.99,3.49,9581.76,3.65,-0.1,-74.21,32375,0,0.24,781,578,89.47047448
40,738,5.6,46.13,206.8,6.16,3.42,10224.54,3.93,-0.1,-74.18,36362,0,0.25,825,517,67.15236223
41,786,5.77,47.75,207.72,6.3,3.35,10937.61,4.23,-0.1,-74.15,40993,0,0.25,872,467,88.16238088
42,834,5.92,49.32,208.77,6.47,3.28,11666.5,4.54,-0.1,-74.12,45956,0,0.26,919,403,45.99197315
43,886,6.09,51.01,209.73,6.65,3.21,12488.58,4.89,-0.1,-74.09,51835,0,0.26,971,335,2.946652049
44,936,6.26,52.64,210.43,6.79,3.15,13293.29,5.22,-0.1,-74.06,57892,0,0.27,1020,279,71.33809908
45,991,6.45,54.51,211.2,6.98,3.08,14198.21,5.6,-0.1,-74.02,65080,0,0.27,1074,209,78.10178739
46,1046,6.64,56.46,211.89,7.17,3.01,15117.79,5.98,-0.1,-73.99,72825,0,0.27,1128,134,66.27565218
47,1106,6.87,58.71,212.47,7.37,2.94,16149.47,6.4,-0.1,-73.95,82085,0,0.28,1188,59,81.32874147
48,1153,3.82,28.87,0,0,2.88,17175.12,6.82,-0.1,-73.91,90015,0,0.28,1234,0,82.7070021
49,1141,0.35,12.09,0,0,2.88,18232.04,7.25,-0.1,-73.86,89520,0,0.28,1222,0,59.32412469
50,1129,0.28,11.44,0,0,2.88,19256.88,7.67,-0.1,-73.82,89140,0,0.28,1211,0,26.32644086
51,1118,0.24,10.94,0,0,2.88,20312.62,8.11,-0.1,-73.78,88825,0,0.28,1201,0,27.07318244
52,1108,0.19,10.53,0,0,2.88,21337.27,8.53,-0.1,-73.74,88577,0,0.28,1191,0,50.69249021
53,1098,0.16,10.19,0,0,2.88,22352,8.94,-0.1,-73.7,88380,0,0.28,1181,0,86.70236299
54,1089,0.13,9.92,0,0,2.88,23357.11,9.36,-0.1,-73.66,88222,0,0.28,1172,0,55.12776351
55,1079,0.11,9.7,0,0,2.88,24352.82,9.77,-0.1,-73.62,88095,0,0.28,1163,0,9.562842007
56,1070,0.09,9.53,0,0,2.88,25319.7,10.17,-0.1,-73.59,87994,0,0.28,1155,0,45.74823941
57,1061,0.07,9.37,0,0,2.88,26336.28,10.59,-0.1,-73.55,87907,0,0.28,1146,0,92.8895768
58,1053,0.06,9.25,0,0,2.88,27266.11,10.98,-0.1,-73.51,87842,0,0.28,1138,0,87.78807055
59,1044,0.05,9.14,0,0,2.88,28245.19,11.39,-0.1,-73.47,87786,0,0.28,1130,0,86.05017896
60,1035,0.04,9.04,0,0,2.88,29196.28,11.79,-0.1,-73.43,87742,0,0.28,1122,0,64.49569385
61,1027,0.04,8.97,0,0,2.88,30138.78,12.19,-0.1,-73.39,87705,0,0.28,1114,0,76.9966529
62,1019,0.03,8.9,0,0,2.88,31054.13,12.58,-0.1,-73.36,87676,0,0.28,1107,0,63.14876937
63,1010,0.03,8.84,0,0,2.88,31998.21,12.98,-0.11,-73.32,87651,0,0.28,1099,0,58.9889272
64,1002,0.02,8.79,0,0,2.88,32915.26,13.37,-0.11,-73.28,87631,0,0.28,1091,0,88.52346847
65,994,0.02,8.74,0,0,2.88,33823.95,13.76,-0.11,-73.24,87614,0,0.28,1084,0,7.862291999
66,986,0.02,8.7,0,0,2.88,34706.37,14.15,-0.11,-73.21,87601,0,0.28,1076,0,90.56181876
67,978,0.01,8.65,0,0,2.88,35634.11,14.55,-0.11,-73.17,87589,0,0.28,1069,0,41.49007195
68,970,0.01,8.62,0,0,2.88,36482.56,14.92,-0.11,-73.13,87579,0,0.28,1061,0,56.77794268
69,962,0.01,8.58,0,0,2.88,37393.16,15.32,-0.11,-73.09,87571,0,0.28,1054,0,57.43453723
70,954,0.01,8.55,0,0,2.88,38225.85,15.68,-0.11,-73.06,87564,0,0.28,1047,0,20.22006016
71,946,0.01,8.52,0,0,2.88,39119.44,16.08,-0.11,-73.02,87558,0,0.28,1039,0,11.18862111
72,938,0.01,8.49,0,0,2.88,39936.49,16.44,-0.11,-72.99,87554,0,0.28,1033,0,2.111369922
73,930,0.01,8.47,0,0,2.88,40813.18,16.84,-0.11,-72.95,87549,0,0.28,1025,0,8.010870244
74,923,0.01,8.44,0,0,2.88,41614.68,17.2,-0.11,-72.92,87546,0,0.28,1018,0,92.78117582
75,915,0.01,8.41,0,0,2.88,42474.58,17.59,-0.11,-72.88,87543,0,0.28,1011,0,40.4395328
76,908,0.01,8.39,0,0,2.88,43260.63,17.95,-0.11,-72.84,87540,0,0.28,1004,0,88.61162096
77,900,0,8.37,0,0,2.88,44103.83,18.33,-0.11,-72.81,87538,0,0.28,997,0,58.83617755
78,892,0,8.34,0,0,2.88,44874.51,18.69,-0.11,-72.77,87536,0,0.28,990,0,70.87732063
79,884,0,8.32,0,0,2.88,45701.11,19.07,-0.11,-72.74,87534,0,0.28,983,0,57.80911887
80,877,0,8.3,0,0,2.88,46456.49,19.42,-0.11,-72.7,87532,0,0.28,977,0,91.83786444
81,869,0,8.28,0,0,2.88,47266.57,19.81,-0.11,-72.67,87531,0,0.28,970,0,30.18495265
82,862,0,8.26,0,0,2.88,48006.74,20.16,-0.11,-72.63,87530,0,0.28,963,0,11.09479139
83,855,0,8.23,0,0,2.88,48800.38,20.53,-0.11,-72.6,87528,0,0.28,956,0,77.08856893
84,847,0,8.22,0,0,2.88,49525.42,20.88,-0.11,-72.56,87527,0,0.28,950,0,72.8502639
85,840,0,8.19,0,0,2.88,50302.7,21.26,-0.11,-72.53,87527,0,0.28,943,0,62.40987521
86,833,0,8.18,0,0,2.88,51012.66,21.6,-0.11,-72.49,87526,0,0.28,937,0,32.65226888
87,825,0,8.16,0,0,2.88,51773.66,21.98,-0.11,-72.46,87525,0,0.28,930,0,95.79145577
88,818,0,8.14,0,0,2.88,52468.62,22.32,-0.11,-72.43,87525,0,0.28,924,0,91.05050035
89,811,0,8.12,0,0,2.88,53213.4,22.69,-0.11,-72.39,87524,0,0.28,917,0,52.12147393
90,804,0,8.1,0,0,2.88,53893.43,23.03,-0.11,-72.36,87524,0,0.28,911,0,2.353864477
91,796,0,8.08,0,0,2.88,54608.14,23.39,-0.11,-72.32,87523,0,0.28,904,0,65.30552405
92,789,0,8.06,0,0,2.88,55287.24,23.74,-0.11,-72.29,87523,0,0.28,898,0,86.00616084
93,782,0,8.05,0,0,2.88,55999.8,24.1,-0.11,-72.26,87523,0,0.28,892,0,27.30858407
94,775,0,8.03,0,0,2.88,56650.16,24.44,-0.11,-72.22,87522,0,0.28,886,0,94.93433369
95,768,0,8.01,0,0,2.88,57346.71,24.8,-0.11,-72.19,87522,0,0.28,879,0,2.125775329
96,761,0,8,0,0,2.88,57982.32,25.14,-0.11,-72.16,87522,0,0.28,873,0,49.88171693
97,754,0,7.98,0,0,2.88,58662.93,25.5,-0.11,-72.12,87521,0,0.28,867,0,4.504220489
98,747,0,7.97,0,0,2.88,59283.85,25.83,-0.11,-72.09,87521,0,0.28,861,0,13.24371591
99,740,0,7.95,0,0,2.88,59948.57,26.19,-0.11,-72.06,87521,0,0.28,855,0,26.62442193
100,733,0,7.93,0,0,2.88,60554.86,26.52,-0.11,-72.03,87521,0,0.28,849,0,30.11064836
101,726,0,7.92,0,0,2.88,61203.76,26.88,-0.11,-71.99,87521,0,0.28,843,0,52.77290639
102,720,0,7.9,0,0,2.88,61795.46,27.21,-0.11,-71.96,87520,0,0.28,837,0,89.99226915
103,712,0,7.89,0,0,2.88,62428.6,27.56,-0.11,-71.93,87520,0,0.28,831,0,73.02173513
104,706,0,7.87,0,0,2.88,63005.77,27.89,-0.11,-71.89,87520,0,0.28,825,0,45.29174709
105,699,0,7.86,0,0,2.88,63623.2,28.24,-0.11,-71.86,87520,0,0.28,819,0,42.27001699
106,692,0,7.85,0,0,2.88,64185.9,28.57,-0.11,-71.83,87520,0,0.28,814,0,65.88352837
107,686,0,7.83,0,0,2.88,64787.67,28.92,-0.12,-71.8,87520,0,0.28,808,0,36.87446592
108,679,0,7.82,0,0,2.88,65335.94,29.24,-0.12,-71.77,87520,0,0.28,802,0,58.25987239
109,672,0,7.8,0,0,2.88,65922.11,29.59,-0.12,-71.73,87519,0,0.28,796,0,52.4427937
110,666,0,7.79,0,0,2.88,66456,29.91,-0.12,-71.7,87519,0,0.28,791,0,31.00536503
111,659,0,7.78,0,0,2.88,67026.62,30.26,-0.12,-71.67,87519,0,0.28,785,0,87.19635734
112,653,0,7.76,0,0,2.88,67546.18,30.58,-0.12,-71.64,87519,0,0.28,780,0,47.57713099
113,646,0,7.75,0,0,2.88,68101.3,30.92,-0.12,-71.6,87519,0,0.28,774,0,30.30744221
114,640,0,7.74,0,0,2.88,68606.57,31.24,-0.12,-71.57,87519,0,0.28,769,0,11.82632268
115,633,0,7.73,0,0,2.88,69146.24,31.59,-0.12,-71.54,87519,0,0.28,764,0,0.606054317
116,627,0,7.72,0,0,2.88,69637.27,31.9,-0.12,-71.51,87519,0,0.28,759,0,34.09478269
117,621,0,7.7,0,0,2.88,70151.52,32.24,-0.12,-71.48,87519,0,0.28,753,0,84.7905767
118,615,0,7.69,0,0,2.88,70638.36,32.56,-0.12,-71.45,87519,0,0.28,748,0,57.18073416
119,608,0,7.68,0,0,2.88,71147.25,32.9,-0.12,-71.42,87518,0,0.28,743,0,23.2859036
120,602,0,7.67,0,0,2.88,71619.49,33.22,-0.12,-71.39,87518,0,0.28,738,0,57.25426069
121,596,0,7.66,0,0,2.88,72094.08,33.55,-0.12,-71.35,87518,0,0.28,733,0,20.56012387
122,590,0,7.65,0,0,2.88,72561.32,33.88,-0.12,-71.32,87518,0,0.28,728,0,54.47723023
123,584,0,7.64,0,0,2.88,73030.34,34.21,-0.12,-71.29,87518,0,0.28,723,0,35.48251139
124,578,0,7.63,0,0,2.88,73464.81,34.52,-0.12,-71.26,87518,0,0.28,718,0,77.12706235
125,572,0,7.62,0,0,2.88,73927.87,34.86,-0.12,-71.23,87518,0,0.28,713,0,35.93939693
126,566,0,7.61,0,0,2.88,74348.29,35.17,-0.12,-71.2,87518,0,0.28,708,0,23.08560962
127,560,0,7.6,0,0,2.88,74787.62,35.5,-0.12,-71.17,87518,0,0.28,703,0,72.66757851
128,554,0,7.59,0,0,2.88,75202.57,35.81,-0.12,-71.14,87518,0,0.28,699,0,4.754137901
129,548,0,7.58,0,0,2.88,75627.02,36.14,-0.12,-71.11,87518,0,0.28,694,0,25.57080174
130,543,0,7.57,0,0,2.88,76027.7,36.45,-0.12,-71.08,87518,0,0.28,690,0,44.76020946
131,537,0,7.56,0,0,2.88,76437.33,36.78,-0.12,-71.05,87517,0,0.28,685,0,62.99647893
132,531,0,7.55,0,0,2.88,76823.77,37.09,-0.12,-71.02,87517,0,0.28,681,0,79.61207405
133,526,0,7.54,0,0,2.88,77218.6,37.42,-0.12,-70.98,87517,0,0.28,676,0,58.38542946
134,520,0,7.53,0,0,2.88,77590.84,37.73,-0.12,-70.95,87517,0,0.28,672,0,58.15193952
135,515,0,7.52,0,0,2.88,77970.9,38.05,-0.12,-70.92,87517,0,0.28,668,0,2.305749143
136,509,0,7.52,0,0,2.88,78336.2,38.37,-0.12,-70.89,87517,0,0.28,663,0,93.27113247
137,504,0,7.51,0,0,2.88,78701.38,38.69,-0.12,-70.86,87517,0,0.28,659,0,21.75107515
138,498,0,7.5,0,0,2.88,79045.16,39,-0.12,-70.83,87517,0,0.28,655,0,39.32451304
139,493,0,7.49,0,0,2.88,79395.63,39.33,-0.12,-70.8,87517,0,0.28,651,0,16.02965158
140,488,0,7.48,0,0,2.88,79718.65,39.63,-0.12,-70.77,87517,0,0.28,647,0,13.72932309
141,483,0,7.48,0,0,2.88,80054.59,39.95,-0.12,-70.74,87517,0,0.28,643,0,93.04603876
142,478,0,7.47,0,0,2.88,80370.31,40.26,-0.12,-70.71,87517,0,0.28,640,0,82.12037431
143,473,0,7.46,0,0,2.88,80697.83,40.58,-0.12,-70.68,87516,0,0.28,636,0,95.29615347
144,468,0,7.46,0,0,2.88,80993.29,40.88,-0.12,-70.65,87516,0,0.28,632,0,93.23411993
145,463,0,7.45,0,0,2.88,81305.99,41.21,-0.12,-70.62,87516,0,0.28,628,0,42.52910596
146,458,0,7.44,0,0,2.88,81587.56,41.51,-0.12,-70.59,87516,0,0.28,625,0,78.38234269
147,453,0,7.44,0,0,2.88,81879.57,41.83,-0.12,-70.56,87516,0,0.28,621,0,46.98916881
148,449,0,7.43,0,0,2.88,82158.73,42.14,-0.12,-70.53,87516,0,0.28,618,0,66.34229737
149,444,0,7.42,0,0,2.88,82430.71,42.45,-0.12,-70.5,87516,0,0.28,615,0,11.34116967
150,440,0,7.42,0,0,2.88,82690.34,42.75,-0.12,-70.48,87516,0,0.28,611,0,89.19172135
151,435,0,7.41,0,0,2.88,82958.37,43.08,-0.12,-70.44,87516,0,0.28,608,0,92.54470303
152,431,0,7.41,0,0,2.88,83198.93,43.37,-0.12,-70.42,87516,0,0.28,605,0,27.41346589
153,427,0,7.4,0,0,2.88,83447.36,43.69,-0.12,-70.39,87516,0,0.28,602,0,71.22483911
154,422,0,7.4,0,0,2.88,83679.06,43.99,-0.12,-70.36,87516,0,0.28,599,0,23.18714342
155,418,0,7.39,0,0,2.88,83912.96,44.31,-0.12,-70.33,87516,0,0.28,596,0,76.26664057
156,414,0,7.39,0,0,2.88,84130.73,44.61,-0.13,-70.3,87515,0,0.28,593,0,67.25853651
157,410,0,7.38,0,0,2.88,84354.38,44.93,-0.13,-70.27,87515,0,0.28,590,0,97.39039396
158,407,0,7.38,0,0,2.88,84554.01,45.23,-0.13,-70.24,87515,0,0.28,588,0,26.20168562
159,403,0,7.37,0,0,2.88,84762.89,45.55,-0.13,-70.21,87515,0,0.28,585,0,84.26729221
160,399,0,7.37,0,0,2.88,84948.9,45.84,-0.13,-70.18,87515,0,0.28,583,0,21.035274
161,396,0,7.36,0,0,2.88,85139.39,46.16,-0.13,-70.15,87515,0,0.28,580,0,64.30333579
162,392,0,7.36,0,0,2.88,85315.47,46.46,-0.13,-70.12,87515,0,0.28,578,0,22.03399129
163,389,0,7.36,0,0,2.88,85491.51,46.77,-0.13,-70.09,87515,0,0.28,576,0,99.56186905
164,386,0,7.35,0,0,2.88,85656.96,47.08,-0.13,-70.06,87515,0,0.28,574,0,9.623368788
165,383,0,7.35,0,0,2.88,85815.33,47.38,-0.13,-70.03,87515,0,0.28,571,0,10.85846024
166,380,0,7.35,0,0,2.88,85966.64,47.69,-0.13,-70,87515,0,0.28,569,0,59.73973205
167,377,0,7.34,0,0,2.88,86110.89,48,-0.13,-69.97,87515,0,0.28,568,0,69.7815431
168,374,0,7.34,0,0,2.88,86248.07,48.3,-0.13,-69.95,87515,0,0.28,566,0,83.87423067
169,372,0,7.34,0,0,2.88,86378.19,48.61,-0.13,-69.92,87515,0,0.28,564,0,17.21475382
170,369,0,7.33,0,0,2.88,86498.87,48.91,-0.13,-69.89,87514,0,0.28,562,0,80.63527126
171,367,0,7.33,0,0,2.88,86619.52,49.22,-0.13,-69.86,87514,0,0.28,561,0,40.53032344
172,365,0,7.33,0,0,2.88,86726.24,49.52,-0.13,-69.83,87514,0,0.28,559,0,63.43094465
173,363,0,7.33,0,0,2.88,86828.15,49.83,-0.13,-69.8,87514,0,0.28,558,0,85.90334743
174,361,0,7.32,0,0,2.88,86923.01,50.13,-0.13,-69.77,87514,0,0.28,557,0,40.51425151
175,359,0,7.32,0,0,2.88,87012.52,50.44,-0.13,-69.74,87514,0,0.28,555,0,10.49111957
176,357,0,7.32,0,0,2.88,87090.07,50.74,-0.13,-69.71,87514,0,0.28,554,0,42.96898712
177,356,0,7.32,0,0,2.88,87166.75,51.05,-0.13,-69.68,87514,0,0.28,553,0,57.78722313
178,354,0,7.32,0,0,2.88,87232.04,51.35,-0.13,-69.65,87514,0,0.28,553,0,84.13552759
179,353,0,7.32,0,0,2.88,87291.69,51.66,-0.13,-69.63,87514,0,0.28,552,0,28.5170337
180,352,0,7.32,0,0,2.88,87343.33,51.95,-0.13,-69.6,87514,0,0.28,551,0,92.59026195
181,351,0,7.31,0,0,2.88,87390.73,52.27,-0.13,-69.57,87514,0,0.28,550,0,16.63713177
182,350,0,7.31,0,0,2.88,87428.43,52.57,-0.13,-69.54,87514,0,0.28,550,0,2.174152406
183,349,0,7.31,0,0,2.88,87460.5,52.88,-0.13,-69.51,87513,0,0.28,549,0,2.55266923
184,349,0,7.31,0,0,2.88,87484.41,53.18,-0.13,-69.48,87513,0,0.28,549,0,64.05664721
185,349,0,7.31,0,0,2.88,87502.13,53.49,-0.13,-69.45,87513,0,0.28,549,0,11.9863708
186,348,0,7.31,0,0,2.88,87512.26,53.78,-0.13,-69.42,87513,0,0.28,549,0,11.34698272
187,348,0,7.31,0,0,2.88,87515.63,54.09,-0.13,-69.39,87513,0,0.28,549,0,91.79252619
188,348,0,7.31,0,0,2.88,87512.11,54.38,-0.13,-69.36,87513,0,0.28,549,0,85.76201306
189,349,0,7.31,0,0,2.88,87501.27,54.69,-0.13,-69.33,87513,0,0.28,549,0,68.27488634
190,349,0,7.31,0,0,2.88,87483.96,54.99,-0.13,-69.31,87513,0,0.28,549,0,95.71928252
191,349,0,7.31,0,0,2.88,87458.77,55.3,-0.13,-69.28,87513,0,0.28,549,0,72.63757178
192,350,0,7.31,0,0,2.88,87426.98,55.61,-0.13,-69.25,87513,0,0.28,550,0,80.80166405
193,351,0,7.31,0,0,2.88,87387.29,55.92,-0.13,-69.22,87513,0,0.28,550,0,53.02848815
194,352,0,7.32,0,0,2.88,87342.27,56.21,-0.13,-69.19,87513,0,0.28,551,0,20.88106347
195,353,0,7.32,0,0,2.88,87289.36,56.52,-0.13,-69.16,87513,0,0.28,552,0,13.4049615
196,354,0,7.32,0,0,2.88,87230.68,56.82,-0.13,-69.13,87513,0,0.28,553,0,21.96785943
197,356,0,7.32,0,0,2.88,87162.43,57.13,-0.13,-69.1,87512,0,0.28,553,0,60.62952327
198,357,0,7.32,0,0,2.88,87089.95,57.43,-0.13,-69.07,87512,0,0.28,554,0,20.19604144
199,359,0,7.32,0,0,2.88,87005.64,57.74,-0.13,-69.04,87512,0,0.28,556,0,72.28325975
200,361,0,7.32,0,0,2.88,86921.05,58.04,-0.13,-69.02,87512,0,0.28,557,0,64.98545973
201,363,0,7.33,0,0,2.88,86824.06,58.35,-0.13,-68.99,87512,0,0.28,558,0,97.0735122
202,365,0,7.33,0,0,2.88,86721.86,58.65,-0.13,-68.96,87512,0,0.28,559,0,66.90804448
203,367,0,7.33,0,0,2.88,86612.61,58.96,-0.13,-68.93,87512,0,0.28,561,0,38.96416606
204,369,0,7.33,0,0,2.88,86496.3,59.26,-0.13,-68.9,87512,0,0.28,562,0,59.85132399
205,372,0,7.34,0,0,2.88,86372.94,59.57,-0.13,-68.87,87512,0,0.28,564,0,11.74350824
206,374,0,7.34,0,0,2.88,86242.52,59.87,-0.13,-68.84,87512,0,0.28,566,0,10.44612925
207,377,0,7.34,0,0,2.88,86105.05,60.18,-0.14,-68.81,87512,0,0.28,568,0,10.29482891
208,380,0,7.34,0,0,2.88,85963.47,60.48,-0.14,-68.78,87512,0,0.28,569,0,78.43413477
209,383,0,7.35,0,0,2.88,85805.8,60.8,-0.14,-68.75,87512,0,0.28,572,0,75.88397699
210,386,0,7.35,0,0,2.88,85653.48,61.09,-0.14,-68.72,87512,0,0.28,574,0,47.53021973
211,389,0,7.35,0,0,2.88,85481.11,61.41,-0.14,-68.69,87511,0,0.28,576,0,39.77282819
212,392,0,7.36,0,0,2.88,85311.68,61.71,-0.14,-68.66,87511,0,0.28,578,0,76.24836256
213,396,0,7.36,0,0,2.88,85131.79,62.02,-0.14,-68.64,87511,0,0.28,580,0,5.333017901
214,399,0,7.37,0,0,2.88,84944.82,62.32,-0.14,-68.61,87511,0,0.28,583,0,19.43006654
215,403,0,7.37,0,0,2.88,84750.76,62.63,-0.14,-68.58,87511,0,0.28,585,0,28.54517964
216,407,0,7.37,0,0,2.88,84553.71,62.93,-0.14,-68.55,87511,0,0.28,588,0,82.89840151
217,410,0,7.38,0,0,2.88,84341.37,63.25,-0.14,-68.52,87511,0,0.28,590,0,50.0943374
218,414,0,7.38,0,0,2.88,84130.41,63.55,-0.14,-68.49,87511,0,0.28,593,0,66.90393601
219,418,0,7.39,0,0,2.88,83903.6,63.87,-0.14,-68.46,87511,0,0.28,596,0,73.23909052
220,422,0,7.39,0,0,2.88,83678.72,64.17,-0.14,-68.43,87511,0,0.28,599,0,70.87237082
221,427,0,7.4,0,0,2.88,83432.6,64.49,-0.14,-68.4,87511,0,0.28,602,0,25.09427408
222,431,0,7.4,0,0,2.88,83198.58,64.79,-0.14,-68.37,87511,0,0.28,605,0,76.24827012
223,435,0,7.41,0,0,2.88,82937.65,65.11,-0.14,-68.34,87511,0,0.28,608,0,80.50466858
224,440,0,7.42,0,0,2.88,82684.73,65.41,-0.14,-68.31,87510,0,0.28,611,0,44.23034627
225,444,0,7.42,0,0,2.88,82419.58,65.73,-0.14,-68.28,87510,0,0.28,615,0,20.83406447
226,449,0,7.43,0,0,2.88,82147.3,66.04,-0.14,-68.25,87510,0,0.28,618,0,75.61778367
227,454,0,7.43,0,0,2.88,81862.22,66.35,-0.14,-68.22,87510,0,0.28,621,0,61.33110607
228,458,0,7.44,0,0,2.88,81581.31,66.66,-0.14,-68.19,87510,0,0.28,625,0,99.80893306
229,463,0,7.45,0,0,2.88,81287.59,66.97,-0.14,-68.16,87510,0,0.28,628,0,28.30775235
230,468,0,7.45,0,0,2.88,80992.79,67.28,-0.14,-68.13,87510,0,0.28,632,0,69.37701064
231,473,0,7.46,0,0,2.88,80672.43,67.61,-0.14,-68.1,87510,0,0.28,636,0,79.32722076
232,478,0,7.47,0,0,2.88,80369.82,67.91,-0.14,-68.07,87510,0,0.28,639,0,73.29465342
