Time,Velocity,GForce,Acceleration,Thrust,TWR,Mass,AltitudeFromTerrain,DownrangeDistance,Latitude,Longitude,Apoapsis,Periapsis,Inclination,OrbitalVelocity,VesselDeltaV,Pressure,
1,8,2.46,14.38,112.83,2.14,5.36,79.57,0,-0.1,-74.56,80,0,0.1,175,1524,100.17,
2,29,3.24,21.99,168.51,3.25,5.29,98.24,0,-0.1,-74.56,140,0,0.1,177,1493,99.9,
3,52,3.27,22.34,168.74,3.29,5.22,140.03,0,-0.1,-74.56,277,0,0.1,182,1463,99.29,
4,74,3.3,22.63,169.11,3.35,5.15,200.64,0,-0.1,-74.56,477,0,0.1,190,1433,98.4,
5,97,3.32,22.83,169.63,3.4,5.08,287.93,0,-0.1,-74.56,768,0,0.1,201,1403,97.14,
6,120,3.33,23.04,170.15,3.45,5.01,396.45,0,-0.1,-74.56,1130,0,0.1,215,1379,95.58,
7,143,3.36,23.38,170.92,3.52,4.94,527.55,0.01,-0.1,-74.56,1565,0,0.1,234,1350,93.72,
8,165,3.38,23.99,171.82,3.59,4.88,681.11,0.02,-0.1,-74.56,2072,0,0.1,254,1321,91.59,
9,189,3.41,24.29,172.86,3.66,4.81,860.74,0.05,-0.1,-74.55,2670,0,0.1,276,1292,89.13,
10,212,3.43,24.43,174.01,3.74,4.74,1051.2,0.08,-0.1,-74.55,3310,0,0.11,297,1264,86.59,
11,236,3.45,25.34,175.27,3.82,4.67,1275.58,0.12,-0.1,-74.55,4028,0,0.12,323,1235,83.67,
12,260,3.48,26.08,176.67,3.91,4.6,1516.91,0.18,-0.1,-74.54,4805,0,0.13,348,1205,80.62,
13,284,3.49,26.14,177.84,3.99,4.53,1778.95,0.25,-0.1,-74.53,5641,0,0.14,374,1181,77.41,
14,308,3.51,26.09,179.4,4.09,4.47,2055.24,0.34,-0.1,-74.53,6513,0,0.15,399,1150,74.14,
15,333,3.5,25.87,181,4.19,4.4,2364.24,0.45,-0.1,-74.52,7532,0,0.16,426,1119,70.62,
16,359,3.6,26.75,182.7,4.3,4.33,2682.83,0.56,-0.1,-74.5,8637,0,0.16,451,1086,67.12,
17,387,3.75,28.01,184.44,4.41,4.26,3045.48,0.7,-0.1,-74.49,9950,0,0.17,479,1053,63.32,
18,414,3.83,28.79,186.27,4.53,4.19,3403.77,0.84,-0.1,-74.48,11287,0,0.18,506,1017,59.74,
19,445,3.95,29.96,188.1,4.65,4.12,3818.43,1,-0.1,-74.46,12896,0,0.18,536,981,55.8,
20,475,4.05,30.93,189.6,4.75,4.05,4235.49,1.17,-0.1,-74.45,14574,0,0.19,566,951,52.06,
21,506,4.16,32.07,191.52,4.89,3.98,4688.45,1.36,-0.1,-74.43,16466,0,0.19,597,911,48.22,
22,539,4.31,33.47,193.4,5.02,3.92,5170.28,1.56,-0.1,-74.41,18568,0,0.2,629,870,44.4,
23,574,4.47,35.07,195.32,5.17,3.85,5682.42,1.78,-0.1,-74.39,20912,0,0.2,663,827,40.61,
24,610,4.64,36.7,197.17,5.31,3.78,6226.46,2.01,-0.1,-74.37,23529,0,0.21,699,782,36.87,
25,647,4.78,38.11,199.02,5.47,3.71,6803.96,2.25,-0.1,-74.34,26438,0,0.21,736,734,33.22,
26,686,4.91,39.42,200.78,5.62,3.64,7416.29,2.52,-0.1,-74.32,29654,0,0.22,774,685,29.67,
27,727,5.06,40.85,202.15,5.75,3.57,8064.78,2.79,-0.1,-74.29,33215,0,0.22,814,643,26.25,
28,769,5.21,42.38,203.81,5.91,3.51,8750.86,3.09,-0.1,-74.26,37162,0,0.22,855,589,22.99,
29,812,5.39,44.12,205.33,6.08,3.44,9476.05,3.4,-0.1,-74.23,41549,0,0.23,898,533,19.94,
30,858,5.58,45.97,206.74,6.25,3.37,10242.06,3.73,-0.1,-74.2,46439,0,0.23,943,474,17.16,
31,906,5.77,47.93,207.99,6.42,3.3,11067.3,4.08,-0.1,-74.17,52010,0,0.23,991,413,14.6,
32,953,5.96,49.8,209.12,6.59,3.23,11886.23,4.43,-0.1,-74.13,57861,0,0.24,1037,349,12.43,
33,1006,6.16,51.7,210.09,6.77,3.16,12821.56,4.82,-0.1,-74.1,64936,0,0.24,1090,283,10.35,
34,1057,6.33,53.46,210.79,6.92,3.1,13731.04,5.21,-0.1,-74.06,72224,0,0.24,1140,229,8.66,
35,1114,6.54,55.49,211.57,7.11,3.02,14768.13,5.65,-0.1,-74.02,81057,0,0.25,1197,158,7.07,
36,1170,6.75,57.61,212.22,7.3,2.96,15796.58,6.08,-0.1,-73.98,90416,0,0.25,1252,87,5.78,
37,1229,6.99,59.99,212.77,7.49,2.89,16899.32,6.54,-0.1,-73.93,101183,0,0.25,1311,11,4.66,
38,1222,0.41,12.61,0,0,2.88,18005.5,7,-0.1,-73.89,101462,0,0.25,1304,0,3.76,
39,1210,0.31,11.75,0,0,2.88,19167.29,7.49,-0.1,-73.84,100942,0,0.25,1292,0,3,
40,1200,0.26,11.19,0,0,2.88,20229.2,7.93,-0.1,-73.8,100564,0,0.25,1282,0,2.45,
41,1189,0.21,10.69,0,0,2.88,21368.74,8.41,-0.1,-73.75,100239,0,0.25,1272,0,1.97,
42,1179,0.17,10.32,0,0,2.88,22411.01,8.84,-0.1,-73.71,100003,0,0.25,1263,0,1.62,
43,1169,0.14,9.99,0,0,2.88,23530.09,9.31,-0.1,-73.67,99801,0,0.25,1253,0,1.31,
44,1160,0.11,9.76,0,0,2.88,24554.06,9.75,-0.1,-73.63,99652,0,0.25,1245,0,1.08,
45,1151,0.09,9.55,0,0,2.88,25653.83,10.21,-0.1,-73.58,99523,0,0.25,1236,0,0.88,
46,1142,0.08,9.38,0,0,2.88,26660.37,10.64,-0.1,-73.54,99427,0,0.25,1228,0,0.73,
47,1133,0.06,9.24,0,0,2.88,27741.59,11.1,-0.1,-73.5,99345,0,0.25,1219,0,0.6,
48,1125,0.05,9.12,0,0,2.88,28731.27,11.52,-0.1,-73.46,99284,0,0.25,1211,0,0.5,
49,1116,0.04,9.02,0,0,2.88,29794.48,11.97,-0.1,-73.41,99231,0,0.25,1203,0,0.42,
50,1108,0.03,8.94,0,0,2.88,30767.72,12.39,-0.1,-73.37,99191,0,0.25,1195,0,0.35,
51,1099,0.03,8.87,0,0,2.88,31813.27,12.84,-0.1,-73.33,99156,0,0.25,1187,0,0.3,
52,1091,0.02,8.81,0,0,2.88,32770.36,13.25,-0.1,-73.29,99130,0,0.25,1180,0,0.25,
53,1083,0.02,8.75,0,0,2.88,33778.85,13.69,-0.1,-73.25,99107,0,0.25,1172,0,0.21,
54,1075,0.02,8.7,0,0,2.88,34759.22,14.11,-0.1,-73.21,99089,0,0.25,1165,0,0.18,
55,1067,0.02,8.65,0,0,2.88,35750.71,14.55,-0.1,-73.17,99073,0,0.25,1157,0,0.15,
56,1059,0.01,8.61,0,0,2.88,36676.09,14.95,-0.11,-73.13,99061,0,0.25,1150,0,0.13,
57,1051,0.01,8.57,0,0,2.88,37670.12,15.39,-0.11,-73.09,99050,0,0.25,1142,0,0.11,
58,1043,0.01,8.54,0,0,2.88,38579.89,15.79,-0.11,-73.05,99042,0,0.25,1135,0,0.1,
59,1035,0.01,8.5,0,0,2.88,39557.06,16.22,-0.11,-73.01,99034,0,0.25,1128,0,0.08,
60,1028,0.01,8.47,0,0,2.88,40451.34,16.62,-0.11,-72.97,99028,0,0.25,1121,0,0.07,
61,1020,0.01,8.44,0,0,2.88,41393.4,17.04,-0.11,-72.93,99023,0,0.25,1113,0,0.06,
62,1012,0.01,8.41,0,0,2.88,42290.67,17.45,-0.11,-72.89,99019,0,0.25,1106,0,0.06,
63,1004,0.01,8.39,0,0,2.88,43234.51,17.87,-0.11,-72.85,99014,0,0.25,1099,0,0.05,
64,997,0,8.36,0,0,2.88,44098.11,18.26,-0.11,-72.81,99011,0,0.25,1092,0,0.04,
65,989,0,8.33,0,0,2.88,45025.44,18.69,-0.11,-72.77,99008,0,0.25,1085,0,0.04,
66,982,0,8.31,0,0,2.88,45873.85,19.08,-0.11,-72.74,99006,0,0.25,1078,0,0.03,
67,974,0,8.28,0,0,2.88,46784.77,19.49,-0.11,-72.7,99004,0,0.25,1071,0,0.03,
68,966,0,8.26,0,0,2.88,47635.36,19.89,-0.11,-72.66,99002,0,0.25,1064,0,0.02,
69,959,0,8.24,0,0,2.88,48495.55,20.29,-0.11,-72.62,99000,0,0.25,1058,0,0.02,
70,951,0,8.21,0,0,2.88,49347.93,20.69,-0.11,-72.58,98998,0,0.25,1051,0,0.02,
71,944,0,8.19,0,0,2.88,50192.51,21.08,-0.11,-72.54,98997,0,0.25,1044,0,0.02,
72,937,0,8.17,0,0,2.88,51012.67,21.47,-0.11,-72.51,98996,0,0.25,1037,0,0.01,
73,929,0,8.14,0,0,2.88,51874.89,21.88,-0.11,-72.47,98995,0,0.25,1030,0,0.01,
74,922,0,8.12,0,0,2.88,52663.37,22.26,-0.11,-72.43,98994,0,0.25,1024,0,0.01,
75,915,0,8.1,0,0,2.88,53493.34,22.66,-0.11,-72.39,98993,0,0.25,1017,0,0.01,
76,907,0,8.08,0,0,2.88,54299.26,23.05,-0.11,-72.36,98993,0,0.25,1011,0,0.01,
77,900,0,8.06,0,0,2.88,55097.51,23.43,-0.11,-72.32,98992,0,0.25,1004,0,0.01,
78,893,0,8.04,0,0,2.88,55888.11,23.82,-0.11,-72.28,98992,0,0.25,998,0,0.01,
79,886,0,8.02,0,0,2.88,56671.06,24.21,-0.11,-72.25,98991,0,0.25,991,0,0,
80,879,0,8,0,0,2.88,57446.39,24.59,-0.11,-72.21,98991,0,0.25,985,0,0,
81,872,0,7.98,0,0,2.88,58214.13,24.97,-0.11,-72.17,98990,0,0.25,978,0,0,
82,864,0,7.96,0,0,2.88,58974.27,25.36,-0.11,-72.14,98990,0,0.25,972,0,0,
83,857,0,7.94,0,0,2.88,59726.85,25.74,-0.11,-72.1,98990,0,0.25,966,0,0,
84,850,0,7.93,0,0,2.88,60471.87,26.11,-0.11,-72.06,98989,0,0.25,959,0,0,
85,843,0,7.91,0,0,2.88,61209.36,26.49,-0.11,-72.03,98989,0,0.25,953,0,0,
86,836,0,7.89,0,0,2.88,61939.33,26.87,-0.11,-71.99,98989,0,0.25,947,0,0,
87,829,0,7.87,0,0,2.88,62661.79,27.24,-0.11,-71.96,98989,0,0.25,941,0,0,
88,823,0,7.86,0,0,2.88,63362.55,27.61,-0.11,-71.92,98988,0,0.25,935,0,0,
89,816,0,7.84,0,0,2.88,64098.35,28,-0.11,-71.88,98988,0,0.25,929,0,0,
90,809,0,7.82,0,0,2.88,64770.4,28.36,-0.11,-71.85,98988,0,0.25,923,0,0,
91,802,0,7.8,0,0,2.88,65490.72,28.74,-0.11,-71.81,98988,0,0.25,916,0,0,
92,795,0,7.79,0,0,2.88,66148.49,29.1,-0.11,-71.78,98988,0,0.25,911,0,0,
93,788,0,7.77,0,0,2.88,66853.38,29.48,-0.11,-71.74,98988,0,0.25,905,0,0,
94,782,0,7.76,0,0,2.88,67496.94,29.83,-0.11,-71.71,98987,0,0.25,899,0,0,
95,775,0,7.74,0,0,2.88,68186.45,30.21,-0.11,-71.67,98987,0,0.25,893,0,0,
96,768,0,7.73,0,0,2.88,68815.85,30.56,-0.11,-71.64,98987,0,0.25,887,0,0,
97,762,0,7.71,0,0,2.88,69490.06,30.94,-0.11,-71.6,98987,0,0.25,881,0,0,
98,755,0,7.7,0,0,2.88,70105.35,31.29,-0.11,-71.57,98987,0,0.25,876,0,0,
99,748,0,7.68,0,0,2.88,70764.3,31.67,-0.11,-71.53,98987,0,0.25,870,0,0,
100,742,0,7.67,0,0,2.88,71378,32.02,-0.11,-71.5,98987,0,0.25,864,0,0,
101,735,0,7.65,0,0,2.88,71996.99,32.38,-0.11,-71.47,98987,0,0.25,859,0,0,
102,729,0,7.64,0,0,2.88,72608.69,32.74,-0.11,-71.43,98987,0,0.25,853,0,0,
103,723,0,7.62,0,0,2.88,73213.12,33.1,-0.12,-71.4,98986,0,0.25,847,0,0,
104,716,0,7.61,0,0,2.88,73810.29,33.46,-0.12,-71.36,98986,0,0.25,842,0,0,
105,710,0,7.6,0,0,2.88,74400.21,33.81,-0.12,-71.33,98986,0,0.25,836,0,0,
106,703,0,7.58,0,0,2.88,74982.89,34.17,-0.12,-71.3,98986,0,0.25,831,0,0,
107,697,0,7.57,0,0,2.88,75558.34,34.52,-0.12,-71.26,98986,0,0.25,826,0,0,
108,691,0,7.56,0,0,2.88,76115.29,34.87,-0.12,-71.23,98986,0,0.25,820,0,0,
109,684,0,7.54,0,0,2.88,76698.77,35.23,-0.12,-71.19,98986,0,0.25,815,0,0,
110,678,0,7.53,0,0,2.88,77230.47,35.57,-0.12,-71.16,98986,0,0.25,810,0,0,
111,672,0,7.52,0,0,2.88,77799.01,35.94,-0.12,-71.13,98986,0,0.25,804,0,0,
112,666,0,7.51,0,0,2.88,78316.93,36.27,-0.12,-71.09,98986,0,0.25,799,0,0,
113,660,0,7.49,0,0,2.88,78870.57,36.64,-0.12,-71.06,98986,0,0.25,794,0,0,
114,654,0,7.48,0,0,2.88,79385.19,36.98,-0.12,-71.03,98985,0,0.25,789,0,0,
115,648,0,7.47,0,0,2.88,79913.55,37.33,-0.12,-70.99,98985,0,0.25,784,0,0,
116,642,0,7.46,0,0,2.88,80404.05,37.67,-0.12,-70.96,98985,0,0.25,779,0,0,
117,636,0,7.45,0,0,2.88,80918.03,38.02,-0.12,-70.93,98985,0,0.25,774,0,0,
118,630,0,7.44,0,0,2.88,81414.75,38.36,-0.12,-70.89,98985,0,0.25,769,0,0,
119,624,0,7.43,0,0,2.88,81904.37,38.71,-0.12,-70.86,98985,0,0.25,764,0,0,
120,618,0,7.42,0,0,2.88,82386.91,39.05,-0.12,-70.83,98985,0,0.25,760,0,0,
121,612,0,7.41,0,0,2.88,82862.38,39.39,-0.12,-70.8,98985,0,0.25,755,0,0,
122,607,0,7.4,0,0,2.88,83330.78,39.74,-0.12,-70.76,98985,0,0.25,750,0,0,
123,601,0,7.38,0,0,2.88,83801.28,40.09,-0.12,-70.73,98985,0,0.25,745,0,0,
124,595,0,7.37,0,0,2.88,84246.43,40.42,-0.12,-70.7,98985,0,0.25,741,0,0,
125,589,0,7.37,0,0,2.88,84693.69,40.76,-0.12,-70.67,98985,0,0.25,736,0,0,
126,584,0,7.36,0,0,2.88,85125.18,41.09,-0.12,-70.63,98984,0,0.25,732,0,0,
127,578,0,7.35,0,0,2.88,85575.72,41.45,-0.12,-70.6,98984,0,0.25,727,0,0,
128,573,0,7.34,0,0,2.88,85984.87,41.77,-0.12,-70.57,98984,0,0.25,723,0,0,
129,567,0,7.33,0,0,2.88,86420.84,42.12,-0.12,-70.54,98984,0,0.25,718,0,0,
130,562,0,7.32,0,0,2.88,86816.55,42.44,-0.12,-70.5,98984,0,0.25,714,0,0,
131,556,0,7.31,0,0,2.88,87237.97,42.79,-0.12,-70.47,98984,0,0.25,710,0,0,
132,551,0,7.3,0,0,2.88,87620.28,43.12,-0.12,-70.44,98984,0,0.25,706,0,0,
133,546,0,7.29,0,0,2.88,88027.19,43.47,-0.12,-70.41,98984,0,0.25,702,0,0,
134,541,0,7.28,0,0,2.88,88396.12,43.79,-0.12,-70.38,98984,0,0.25,698,0,0,
135,535,0,7.28,0,0,2.88,88788.55,44.13,-0.12,-70.34,98984,0,0.25,693,0,0,
136,530,0,7.27,0,0,2.88,89144.13,44.45,-0.12,-70.31,98984,0,0.25,690,0,0,
137,525,0,7.26,0,0,2.88,89522.12,44.8,-0.12,-70.28,98984,0,0.25,686,0,0,
138,520,0,7.25,0,0,2.88,89871.44,45.13,-0.12,-70.25,98984,0,0.25,682,0,0,
139,515,0,7.25,0,0,2.88,90221.03,45.46,-0.12,-70.22,98983,0,0.25,678,0,0,
140,510,0,7.24,0,0,2.88,90563.7,45.79,-0.12,-70.19,98983,0,0.25,674,0,0,
141,505,0,7.23,0,0,2.88,90899.46,46.12,-0.12,-70.15,98983,0,0.25,670,0,0,
142,501,0,7.22,0,0,2.88,91228.3,46.45,-0.12,-70.12,98983,0,0.25,667,0,0,
143,496,0,7.22,0,0,2.88,91556.62,46.79,-0.12,-70.09,98983,0,0.25,663,0,0,
144,491,0,7.21,0,0,2.88,91859.07,47.1,-0.12,-70.06,98983,0,0.25,660,0,0,
145,487,0,7.2,0,0,2.88,92179.55,47.45,-0.12,-70.03,98983,0,0.25,656,0,0,
146,482,0,7.2,0,0,2.88,92468.78,47.76,-0.12,-70,98983,0,0.25,653,0,0,
147,478,0,7.19,0,0,2.88,92774.96,48.1,-0.12,-69.96,98983,0,0.25,649,0,0,
148,473,0,7.19,0,0,2.88,93056.67,48.42,-0.12,-69.93,98983,0,0.25,646,0,0,
149,469,0,7.18,0,0,2.88,93337.33,48.75,-0.12,-69.9,98983,0,0.25,643,0,0,
150,465,0,7.17,0,0,2.88,93611.13,49.08,-0.12,-69.87,98983,0,0.25,640,0,0,
151,460,0,7.17,0,0,2.88,93878.08,49.41,-0.12,-69.84,98983,0,0.25,637,0,0,
152,456,0,7.16,0,0,2.88,94138.17,49.73,-0.12,-69.81,98982,0,0.25,634,0,0,
153,452,0,7.16,0,0,2.88,94391.42,50.06,-0.12,-69.78,98982,0,0.25,631,0,0,
154,448,0,7.15,0,0,2.88,94637.83,50.38,-0.12,-69.75,98982,0,0.25,628,0,0,
155,444,0,7.15,0,0,2.88,94877.4,50.71,-0.12,-69.72,98982,0,0.25,625,0,0,
156,441,0,7.14,0,0,2.88,95110.14,51.03,-0.13,-69.68,98982,0,0.25,623,0,0,
157,437,0,7.14,0,0,2.88,95336.05,51.36,-0.13,-69.65,98982,0,0.25,620,0,0,
158,433,0,7.13,0,0,2.88,95555.14,51.68,-0.13,-69.62,98982,0,0.25,617,0,0,
159,430,0,7.13,0,0,2.88,95767.41,52.01,-0.13,-69.59,98982,0,0.25,615,0,0,
160,426,0,7.12,0,0,2.88,95972.86,52.33,-0.13,-69.56,98982,0,0.25,612,0,0,
161,423,0,7.12,0,0,2.88,96171.51,52.65,-0.13,-69.53,98982,0,0.25,610,0,0,
162,419,0,7.12,0,0,2.88,96363.35,52.98,-0.13,-69.5,98982,0,0.25,608,0,0,
163,416,0,7.11,0,0,2.88,96548.38,53.3,-0.13,-69.47,98982,0,0.25,605,0,0,
164,413,0,7.11,0,0,2.88,96726.61,53.62,-0.13,-69.44,98982,0,0.25,603,0,0,
165,410,0,7.1,0,0,2.88,96898.05,53.94,-0.13,-69.41,98982,0,0.25,601,0,0,
166,407,0,7.1,0,0,2.88,97062.69,54.26,-0.13,-69.38,98981,0,0.25,599,0,0,
167,404,0,7.1,0,0,2.88,97220.54,54.59,-0.13,-69.35,98981,0,0.25,597,0,0,
168,402,0,7.09,0,0,2.88,97371.61,54.91,-0.13,-69.31,98981,0,0.25,595,0,0,
169,399,0,7.09,0,0,2.88,97515.89,55.23,-0.13,-69.28,98981,0,0.25,594,0,0,
170,397,0,7.09,0,0,2.88,97653.39,55.55,-0.13,-69.25,98981,0,0.25,592,0,0,
171,394,0,7.09,0,0,2.88,97784.11,55.87,-0.13,-69.22,98981,0,0.25,590,0,0,
172,392,0,7.08,0,0,2.88,97908.05,56.19,-0.13,-69.19,98981,0,0.25,589,0,0,
173,390,0,7.08,0,0,2.88,98025.22,56.51,-0.13,-69.16,98981,0,0.25,587,0,0,
174,388,0,7.08,0,0,2.88,98135.61,56.83,-0.13,-69.13,98981,0,0.25,586,0,0,
175,386,0,7.08,0,0,2.88,98239.24,57.15,-0.13,-69.1,98981,0,0.25,585,0,0,
176,384,0,7.07,0,0,2.88,98336.09,57.47,-0.13,-69.07,98981,0,0.25,584,0,0,
177,382,0,7.07,0,0,2.88,98426.18,57.79,-0.13,-69.04,98981,0,0.25,582,0,0,
178,381,0,7.07,0,0,2.88,98509.51,58.11,-0.13,-69.01,98981,0,0.25,581,0,0,
179,379,0,7.07,0,0,2.88,98586.07,58.43,-0.13,-68.98,98981,0,0.25,580,0,0,
180,378,0,7.07,0,0,2.88,98654.54,58.75,-0.13,-68.95,98980,0,0.25,580,0,0,
181,377,0,7.07,0,0,2.88,98720.1,59.08,-0.13,-68.92,98980,0,0.25,579,0,0,
182,376,0,7.07,0,0,2.88,98775.19,59.39,-0.13,-68.89,98980,0,0.25,578,0,0,
183,375,0,7.06,0,0,2.88,98824.71,59.71,-0.13,-68.86,98980,0,0.25,578,0,0,
184,374,0,7.06,0,0,2.88,98867.47,60.03,-0.13,-68.83,98980,0,0.25,577,0,0,
185,373,0,7.06,0,0,2.88,98903.48,60.35,-0.13,-68.79,98980,0,0.25,577,0,0,
186,373,0,7.06,0,0,2.88,98932.73,60.67,-0.13,-68.76,98980,0,0.25,576,0,0,
187,372,0,7.06,0,0,2.88,98955.22,60.99,-0.13,-68.73,98980,0,0.25,576,0,0,
188,372,0,7.06,0,0,2.88,98970.96,61.31,-0.13,-68.7,98980,0,0.25,576,0,0,
189,372,0,7.06,0,0,2.88,98979.95,61.63,-0.13,-68.67,98980,0,0.25,576,0,0,
190,372,0,7.06,0,0,2.88,98982.18,61.94,-0.13,-68.64,98980,0,0.25,576,0,0,
191,372,0,7.06,0,0,2.88,98977.72,62.26,-0.13,-68.61,98980,0,0.25,576,0,0,
192,372,0,7.06,0,0,2.88,98966.47,62.58,-0.13,-68.58,98980,0,0.25,576,0,0,
193,372,0,7.06,0,0,2.88,98948.37,62.9,-0.13,-68.55,98980,0,0.25,576,0,0,
194,373,0,7.06,0,0,2.88,98923.53,63.22,-0.13,-68.52,98979,0,0.25,576,0,0,
195,373,0,7.06,0,0,2.88,98892.01,63.54,-0.13,-68.49,98979,0,0.25,577,0,0,
196,374,0,7.06,0,0,2.88,98853.68,63.86,-0.13,-68.46,98979,0,0.25,577,0,0,
197,375,0,7.06,0,0,2.88,98808.6,64.18,-0.13,-68.43,98979,0,0.25,578,0,0,
198,376,0,7.06,0,0,2.88,98757.92,64.49,-0.13,-68.4,98979,0,0.25,578,0,0,
199,377,0,7.07,0,0,2.88,98697.01,64.82,-0.13,-68.37,98979,0,0.25,579,0,0,
200,378,0,7.07,0,0,2.88,98634.27,65.13,-0.13,-68.34,98979,0,0.25,580,0,0,
201,380,0,7.07,0,0,2.88,98560.81,65.45,-0.13,-68.31,98979,0,0.25,581,0,0,
202,381,0,7.07,0,0,2.88,98481.96,65.77,-0.13,-68.28,98979,0,0.25,582,0,0,
203,383,0,7.07,0,0,2.88,98396.33,66.09,-0.13,-68.25,98979,0,0.25,583,0,0,
204,385,0,7.07,0,0,2.88,98303.94,66.41,-0.13,-68.22,98979,0,0.25,584,0,0,
205,386,0,7.08,0,0,2.88,98204.79,66.73,-0.13,-68.19,98979,0,0.25,585,0,0,
206,388,0,7.08,0,0,2.88,98098.87,67.05,-0.13,-68.15,98979,0,0.25,587,0,0,
207,390,0,7.08,0,0,2.88,97986.17,67.38,-0.13,-68.12,98979,0,0.25,588,0,0,
208,393,0,7.08,0,0,2.88,97866.71,67.7,-0.13,-68.09,98979,0,0.25,589,0,0,
209,395,0,7.09,0,0,2.88,97740.47,68.02,-0.13,-68.06,98978,0,0.25,591,0,0,
210,397,0,7.09,0,0,2.88,97607.44,68.34,-0.13,-68.03,98978,0,0.25,593,0,0,
211,400,0,7.09,0,0,2.88,97467.64,68.66,-0.13,-68,98978,0,0.25,594,0,0,
212,403,0,7.09,0,0,2.88,97321.06,68.98,-0.14,-67.97,98978,0,0.25,596,0,0,
213,405,0,7.1,0,0,2.88,97167.69,69.3,-0.14,-67.94,98978,0,0.25,598,0,0,
214,408,0,7.1,0,0,2.88,97007.53,69.62,-0.14,-67.91,98978,0,0.25,600,0,0,
215,411,0,7.1,0,0,2.88,96840.58,69.95,-0.14,-67.88,98978,0,0.25,602,0,0,
216,414,0,7.11,0,0,2.88,96666.84,70.27,-0.14,-67.85,98978,0,0.25,604,0,0,
217,417,0,7.11,0,0,2.88,96486.3,70.59,-0.14,-67.82,98978,0,0.25,606,0,0,
218,420,0,7.12,0,0,2.88,96302.77,70.91,-0.14,-67.79,98978,0,0.25,608,0,0,
219,424,0,7.12,0,0,2.88,96100.85,71.24,-0.14,-67.75,98978,0,0.25,611,0,0,
220,427,0,7.12,0,0,2.88,95907.93,71.55,-0.14,-67.72,98978,0,0.25,613,0,0,
221,431,0,7.13,0,0,2.88,95691.85,71.89,-0.14,-67.69,98978,0,0.25,616,0,0,
222,434,0,7.13,0,0,2.88,95485.85,72.2,-0.14,-67.66,98978,0,0.25,618,0,0,
223,438,0,7.14,0,0,2.88,95255.59,72.54,-0.14,-67.63,98977,0,0.25,621,0,0,
224,442,0,7.14,0,0,2.88,95036.49,72.85,-0.14,-67.6,98977,0,0.25,623,0,0,
225,446,0,7.15,0,0,2.88,94792.03,73.19,-0.14,-67.57,98977,0,0.25,626,0,0,
226,449,0,7.15,0,0,2.88,94559.81,73.5,-0.14,-67.54,98977,0,0.25,629,0,0,
227,454,0,7.16,0,0,2.88,94301.13,73.84,-0.14,-67.51,98977,0,0.25,632,0,0,
228,457,0,7.16,0,0,2.88,94055.78,74.15,-0.14,-67.48,98977,0,0.25,635,0,0,
229,462,0,7.17,0,0,2.88,93782.87,74.49,-0.14,-67.44,98977,0,0.25,638,0,0,
230,466,0,7.17,0,0,2.88,93524.37,74.8,-0.14,-67.41,98977,0,0.25,641,0,0,
231,470,0,7.18,0,0,2.88,93242.78,75.14,-0.14,-67.38,98977,0,0.25,644,0,0,
232,475,0,7.18,0,0,2.88,92959.79,75.46,-0.14,-67.35,98977,0,0.25,647,0,0,
233,479,0,7.19,0,0,2.88,92669.93,75.79,-0.14,-67.32,98977,0,0.25,651,0,0,
234,484,0,7.2,0,0,2.88,92373.19,76.12,-0.14,-67.29,98977,0,0.25,654,0,0,
235,488,0,7.2,0,0,2.88,92069.58,76.45,-0.14,-67.26,98977,0,0.25,657,0,0,
236,493,0,7.21,0,0,2.88,91765.36,76.77,-0.14,-67.23,98976,0,0.25,661,0,0,
237,498,0,7.22,0,0,2.88,91435.27,77.12,-0.14,-67.19,98976,0,0.25,664,0,0,
238,502,0,7.22,0,0,2.88,91123.95,77.43,-0.14,-67.16,98976,0,0.25,668,0,0,
239,507,0,7.23,0,0,2.88,90779.51,77.78,-0.14,-67.13,98976,0,0.25,672,0,0,
240,512,0,7.24,0,0,2.88,90448.11,78.1,-0.14,-67.1,98976,0,0.25,675,0,0,
241,517,0,7.24,0,0,2.88,90103.09,78.43,-0.14,-67.07,98976,0,0.25,679,0,0,
242,522,0,7.25,0,0,2.88,89751.15,78.76,-0.14,-67.04,98976,0,0.25,683,0,0,
243,527,0,7.26,0,0,2.88,89392.27,79.1,-0.14,-67,98976,0,0.25,687,0,0,
244,532,0,7.27,0,0,2.88,89026.47,79.43,-0.14,-66.97,98976,0,0.25,691,0,0,
245,537,0,7.28,0,0,2.88,88646.19,79.77,-0.14,-66.94,98976,0,0.25,695,0,0,
246,542,0,7.28,0,0,2.88,88281.67,80.09,-0.14,-66.91,98976,0,0.25,699,0,0,
247,548,0,7.29,0,0,2.88,87879.54,80.44,-0.14,-66.88,98976,0,0.25,703,0,0,
248,553,0,7.3,0,0,2.88,87501.66,80.76,-0.14,-66.85,98976,0,0.25,707,0,0,
249,558,0,7.31,0,0,2.88,87085.03,81.11,-0.14,-66.81,98975,0,0.25,711,0,0,
250,564,0,7.32,0,0,2.88,86685.53,81.44,-0.14,-66.78,98975,0,0.25,716,0,0,
251,569,0,7.33,0,0,2.88,86270.95,81.78,-0.14,-66.75,98975,0,0.25,720,0,0,
252,575,0,7.34,0,0,2.88,85849.38,82.12,-0.14,-66.72,98975,0,0.25,724,0,0,
253,580,0,7.35,0,0,2.88,85420.8,82.45,-0.14,-66.68,98975,0,0.25,729,0,0,
254,586,0,7.35,0,0,2.88,84985.21,82.79,-0.14,-66.65,98975,0,0.25,733,0,0,
255,591,0,7.36,0,0,2.88,84533.66,83.14,-0.14,-66.62,98975,0,0.25,738,0,0,
256,597,0,7.37,0,0,2.88,84102,83.47,-0.14,-66.59,98975,0,0.25,742,0,0,
257,603,0,7.38,0,0,2.88,83627.04,83.82,-0.14,-66.55,98975,0,0.25,747,0,0,
