Time,Velocity,GForce,Acceleration,Thrust,TWR,Mass,AltitudeFromTerrain,DownrangeDistance,Latitude,Longitude,Apoapsis,Periapsis,Inclination,OrbitalVelocity,VesselDeltaV,Pressure,
1,7,2.14,11.27,112.84,2.15,5.36,79.72,0,-0.1,-74.56,80,0,0.1,175,1523,100.17,
2,17,2.16,12.29,112.87,2.16,5.31,91.11,0,-0.1,-74.56,104,0,0.1,179,1506,100,
3,30,2.18,12.21,112.96,2.18,5.27,114.61,0.01,-0.1,-74.56,153,0,0.1,186,1485,99.66,
4,41,2.19,11.97,113.09,2.21,5.22,146.88,0.02,-0.1,-74.56,223,0,0.1,192,1465,99.18,
5,53,2.2,11.9,113.26,2.23,5.17,193.76,0.03,-0.1,-74.55,325,0,0.1,198,1445,98.5,
6,65,2.22,12,113.49,2.25,5.13,248.36,0.05,-0.1,-74.55,447,0,0.1,201,1425,97.7,
7,77,2.23,12.11,113.77,2.28,5.08,319.98,0.07,-0.1,-74.55,607,0,0.11,206,1406,96.67,
8,89,2.24,12.21,114.1,2.31,5.04,399.44,0.08,-0.1,-74.55,785,0,0.11,212,1386,95.53,
9,101,2.25,12.29,114.39,2.33,4.99,492.59,0.1,-0.1,-74.55,996,0,0.11,218,1371,94.21,
10,113,2.25,12.39,114.81,2.36,4.94,598.03,0.12,-0.1,-74.55,1235,0,0.11,225,1353,92.73,
11,126,2.27,12.51,115.28,2.4,4.9,715.85,0.14,-0.1,-74.54,1504,0,0.11,232,1334,91.1,
12,138,2.29,13.07,115.79,2.43,4.85,846.14,0.16,-0.1,-74.54,1802,0,0.12,241,1315,89.32,
13,151,2.3,13.41,116.35,2.47,4.81,988.67,0.19,-0.1,-74.54,2124,0,0.12,252,1297,87.41,
14,164,2.31,13.54,116.95,2.5,4.76,1143.24,0.22,-0.1,-74.54,2472,0,0.13,264,1279,85.37,
15,178,2.33,13.84,117.61,2.54,4.72,1309.96,0.26,-0.1,-74.53,2851,0,0.14,277,1260,83.22,
16,191,2.34,14.33,118.15,2.57,4.67,1488.6,0.3,-0.1,-74.53,3248,0,0.15,291,1245,80.96,
17,204,2.36,14.58,118.86,2.62,4.62,1678.67,0.36,-0.1,-74.52,3664,0,0.16,305,1227,78.61,
18,218,2.38,14.86,119.62,2.66,4.58,1880.62,0.42,-0.1,-74.52,4125,0,0.17,319,1207,76.18,
19,233,2.42,14.81,120.39,2.71,4.53,2099.32,0.49,-0.1,-74.51,4637,0,0.18,333,1188,73.61,
20,247,2.43,15.06,121.21,2.75,4.49,2317.29,0.57,-0.1,-74.5,5151,0,0.19,347,1168,71.13,
21,262,2.45,15.18,122.05,2.8,4.44,2566.89,0.65,-0.1,-74.5,5747,0,0.19,362,1149,68.36,
22,277,2.46,15.2,122.74,2.84,4.39,2809.88,0.74,-0.1,-74.49,6332,0,0.2,376,1132,65.75,
23,293,2.47,15.34,123.81,2.9,4.35,3086.93,0.85,-0.1,-74.48,7006,0,0.21,391,1107,62.88,
24,307,2.47,15.27,124.54,2.95,4.3,3355.55,0.95,-0.1,-74.47,7664,0,0.22,406,1090,60.19,
25,323,2.45,15.07,125.47,3,4.26,3660.5,1.07,-0.1,-74.46,8409,0,0.22,421,1068,57.26,
26,337,2.47,15.29,126.39,3.06,4.21,3954.87,1.19,-0.1,-74.44,9136,0,0.23,435,1045,54.53,
27,354,2.55,15.96,127.34,3.12,4.16,4288.16,1.32,-0.1,-74.43,9985,0,0.24,450,1021,51.58,
28,369,2.59,16.4,128.27,3.17,4.12,4609.78,1.45,-0.1,-74.42,10829,0,0.24,465,997,48.85,
29,386,2.63,16.73,129.23,3.23,4.07,4973.82,1.6,-0.1,-74.41,11802,0,0.25,482,972,45.91,
30,403,2.68,17.19,129.98,3.28,4.03,5324.67,1.74,-0.1,-74.39,12761,0,0.25,497,951,43.2,
31,424,3.36,23.94,156.3,4,3.98,5721.73,1.9,-0.1,-74.38,13975,0,0.26,517,924,40.31,
32,456,4.49,34.96,196.79,5.12,3.91,6112.9,2.06,-0.1,-74.36,15754,0,0.27,548,881,37.61,
33,494,4.63,36.34,198.2,5.25,3.84,6571.02,2.24,-0.1,-74.34,17943,0,0.27,583,835,34.64,
34,529,4.78,37.83,199.66,5.39,3.77,7026.87,2.42,-0.1,-74.33,20212,0,0.28,618,787,31.87,
35,570,4.95,39.58,201.09,5.53,3.7,7558.02,2.63,-0.1,-74.31,22978,0,0.29,657,737,28.88,
36,609,5.11,41.12,202.23,5.65,3.64,8084.26,2.84,-0.1,-74.29,25844,0,0.3,694,697,26.14,
37,653,5.25,42.5,203.91,5.83,3.57,8694.84,3.08,-0.1,-74.26,29307,0,0.31,737,632,23.24,
38,695,5.39,43.91,204.99,5.95,3.5,9297.06,3.31,-0.1,-74.24,32866,0,0.31,777,588,20.65,
39,741,5.56,45.57,206.27,6.11,3.43,9992.8,3.58,-0.1,-74.22,37165,0,0.32,823,530,18.02,
40,786,5.72,47.18,207.44,6.28,3.36,10676.5,3.84,-0.1,-74.19,41594,0,0.33,867,471,15.76,
41,836,5.89,48.87,208.53,6.45,3.29,11448.17,4.13,-0.1,-74.16,46837,0,0.33,915,408,13.54,
42,886,6.06,50.53,209.5,6.62,3.22,12251.57,4.44,-0.1,-74.13,52572,0,0.34,964,345,11.57,
43,937,6.23,52.24,210.38,6.79,3.16,13102.96,4.76,-0.1,-74.1,58968,0,0.34,1015,278,9.79,
44,991,6.41,54.06,211,6.94,3.09,14004.02,5.09,-0.1,-74.07,66111,0,0.35,1068,223,8.21,
45,1046,6.61,56.04,211.7,7.12,3.02,14956.53,5.45,-0.1,-74.04,74111,0,0.35,1122,153,6.81,
46,1104,6.83,58.2,212.31,7.31,2.95,15962.4,5.82,-0.1,-74,83102,0,0.36,1179,80,5.59,
47,1162,6.68,56.82,212.82,7.51,2.88,17023.73,6.21,-0.1,-73.97,93016,0,0.36,1237,6,4.55,
48,1150,0.36,12.25,0,0,2.88,18105.45,6.6,-0.1,-73.93,92483,0,0.36,1225,0,3.68,
49,1138,0.29,11.54,0,0,2.88,19175.63,6.99,-0.1,-73.89,92069,0,0.36,1214,0,2.99,
50,1127,0.24,11.03,0,0,2.88,20234.9,7.38,-0.1,-73.85,91740,0,0.36,1203,0,2.45,
51,1117,0.19,10.6,0,0,2.88,21283.72,7.77,-0.1,-73.82,91477,0,0.36,1193,0,2,
52,1107,0.16,10.25,0,0,2.88,22322.47,8.15,-0.1,-73.78,91268,0,0.36,1184,0,1.64,
53,1097,0.13,9.97,0,0,2.88,23351.48,8.53,-0.1,-73.74,91101,0,0.36,1175,0,1.35,
54,1088,0.11,9.74,0,0,2.88,24370.98,8.91,-0.1,-73.71,90967,0,0.36,1166,0,1.12,
55,1078,0.09,9.55,0,0,2.88,25381.19,9.28,-0.1,-73.67,90859,0,0.36,1157,0,0.93,
56,1069,0.07,9.4,0,0,2.88,26382.27,9.65,-0.11,-73.64,90772,0,0.36,1148,0,0.77,
57,1061,0.06,9.26,0,0,2.88,27374.36,10.02,-0.11,-73.6,90701,0,0.36,1140,0,0.65,
58,1052,0.05,9.15,0,0,2.88,28357.59,10.39,-0.11,-73.57,90645,0,0.36,1132,0,0.54,
59,1043,0.04,9.06,0,0,2.88,29332.05,10.76,-0.11,-73.53,90599,0,0.36,1124,0,0.45,
60,1035,0.03,8.98,0,0,2.88,30297.83,11.12,-0.11,-73.5,90561,0,0.36,1116,0,0.38,
61,1026,0.03,8.91,0,0,2.88,31255.01,11.48,-0.11,-73.46,90531,0,0.36,1108,0,0.32,
62,1018,0.02,8.85,0,0,2.88,32203.65,11.85,-0.11,-73.43,90506,0,0.36,1100,0,0.28,
63,1009,0.02,8.79,0,0,2.88,33143.8,12.2,-0.11,-73.39,90485,0,0.36,1092,0,0.24,
64,1001,0.02,8.74,0,0,2.88,34075.51,12.56,-0.11,-73.36,90467,0,0.36,1084,0,0.2,
65,993,0.02,8.7,0,0,2.88,34998.83,12.92,-0.11,-73.32,90453,0,0.36,1077,0,0.18,
66,985,0.01,8.66,0,0,2.88,35913.8,13.27,-0.11,-73.29,90441,0,0.36,1069,0,0.15,
67,977,0.01,8.62,0,0,2.88,36820.45,13.62,-0.11,-73.26,90431,0,0.36,1062,0,0.13,
68,969,0.01,8.59,0,0,2.88,37718.83,13.97,-0.11,-73.22,90423,0,0.36,1054,0,0.11,
69,961,0.01,8.55,0,0,2.88,38608.95,14.32,-0.11,-73.19,90416,0,0.36,1047,0,0.1,
70,953,0.01,8.52,0,0,2.88,39490.86,14.67,-0.11,-73.16,90410,0,0.36,1039,0,0.09,
71,945,0.01,8.49,0,0,2.88,40364.58,15.02,-0.11,-73.12,90405,0,0.36,1032,0,0.08,
72,937,0.01,8.47,0,0,2.88,41230.14,15.36,-0.11,-73.09,90400,0,0.36,1025,0,0.07,
73,929,0.01,8.44,0,0,2.88,42087.55,15.7,-0.11,-73.06,90397,0,0.36,1017,0,0.06,
74,921,0,8.41,0,0,2.88,42936.86,16.05,-0.11,-73.03,90393,0,0.36,1010,0,0.05,
75,913,0,8.39,0,0,2.88,43778.08,16.39,-0.11,-72.99,90391,0,0.36,1003,0,0.04,
76,905,0,8.36,0,0,2.88,44611.23,16.73,-0.11,-72.96,90388,0,0.36,996,0,0.04,
77,898,0,8.34,0,0,2.88,45436.33,17.06,-0.11,-72.93,90386,0,0.36,989,0,0.03,
78,890,0,8.32,0,0,2.88,46253.42,17.4,-0.11,-72.9,90384,0,0.36,982,0,0.03,
79,882,0,8.29,0,0,2.88,47062.5,17.73,-0.11,-72.86,90382,0,0.36,975,0,0.03,
80,875,0,8.27,0,0,2.88,47863.61,18.07,-0.11,-72.83,90381,0,0.36,968,0,0.02,
81,867,0,8.25,0,0,2.88,48656.75,18.4,-0.11,-72.8,90379,0,0.36,961,0,0.02,
82,859,0,8.23,0,0,2.88,49441.96,18.73,-0.11,-72.77,90378,0,0.36,954,0,0.02,
83,852,0,8.21,0,0,2.88,50219.25,19.06,-0.11,-72.74,90377,0,0.36,947,0,0.02,
84,844,0,8.19,0,0,2.88,50988.64,19.39,-0.11,-72.71,90376,0,0.36,940,0,0.01,
85,837,0,8.17,0,0,2.88,51750.14,19.72,-0.11,-72.67,90376,0,0.36,933,0,0.01,
86,829,0,8.15,0,0,2.88,52503.79,20.04,-0.11,-72.64,90375,0,0.36,927,0,0.01,
87,822,0,8.13,0,0,2.88,53249.58,20.37,-0.11,-72.61,90374,0,0.36,920,0,0.01,
88,814,0,8.11,0,0,2.88,53987.56,20.69,-0.11,-72.58,90374,0,0.36,913,0,0.01,
89,807,0,8.09,0,0,2.88,54717.72,21.02,-0.12,-72.55,90373,0,0.36,907,0,0.01,
90,800,0,8.07,0,0,2.88,55440.09,21.34,-0.12,-72.52,90373,0,0.36,900,0,0.01,
91,792,0,8.05,0,0,2.88,56154.69,21.66,-0.12,-72.49,90372,0,0.36,894,0,0.01,
92,785,0,8.04,0,0,2.88,56861.52,21.98,-0.12,-72.46,90372,0,0.36,887,0,0,
93,778,0,8.02,0,0,2.88,57560.62,22.3,-0.12,-72.43,90372,0,0.36,881,0,0,
94,771,0,8,0,0,2.88,58251.99,22.62,-0.12,-72.4,90371,0,0.36,874,0,0,
95,763,0,7.98,0,0,2.88,58935.65,22.93,-0.12,-72.37,90371,0,0.36,868,0,0,
96,756,0,7.97,0,0,2.88,59611.62,23.25,-0.12,-72.34,90371,0,0.36,861,0,0,
97,749,0,7.95,0,0,2.88,60279.91,23.56,-0.12,-72.31,90371,0,0.36,855,0,0,
98,742,0,7.93,0,0,2.88,60940.53,23.88,-0.12,-72.28,90370,0,0.36,849,0,0,
99,735,0,7.92,0,0,2.88,61593.51,24.19,-0.12,-72.25,90370,0,0.36,843,0,0,
100,728,0,7.9,0,0,2.88,62238.85,24.5,-0.12,-72.22,90370,0,0.36,836,0,0,
101,721,0,7.89,0,0,2.88,62876.57,24.81,-0.12,-72.19,90370,0,0.36,830,0,0,
102,714,0,7.87,0,0,2.88,63506.69,25.12,-0.12,-72.16,90369,0,0.36,824,0,0,
103,707,0,7.86,0,0,2.88,64129.22,25.43,-0.12,-72.13,90369,0,0.36,818,0,0,
104,700,0,7.84,0,0,2.88,64744.17,25.74,-0.12,-72.1,90369,0,0.36,812,0,0,
105,693,0,7.83,0,0,2.88,65351.56,26.04,-0.12,-72.07,90369,0,0.36,806,0,0,
106,686,0,7.81,0,0,2.88,65951.4,26.35,-0.12,-72.04,90369,0,0.36,800,0,0,
107,679,0,7.8,0,0,2.88,66543.7,26.66,-0.12,-72.01,90369,0,0.36,794,0,0,
108,672,0,7.78,0,0,2.88,67128.48,26.96,-0.12,-71.98,90369,0,0.36,788,0,0,
109,665,0,7.77,0,0,2.88,67705.75,27.26,-0.12,-71.95,90369,0,0.36,782,0,0,
110,659,0,7.76,0,0,2.88,68275.52,27.57,-0.12,-71.93,90368,0,0.36,777,0,0,
111,652,0,7.74,0,0,2.88,68837.8,27.87,-0.12,-71.9,90368,0,0.36,771,0,0,
112,645,0,7.73,0,0,2.88,69392.62,28.17,-0.12,-71.87,90368,0,0.36,765,0,0,
113,639,0,7.72,0,0,2.88,69939.97,28.47,-0.12,-71.84,90368,0,0.36,759,0,0,
114,632,0,7.71,0,0,2.88,70479.87,28.77,-0.12,-71.81,90368,0,0.36,754,0,0,
115,625,0,7.69,0,0,2.88,71012.34,29.07,-0.12,-71.78,90368,0,0.36,748,0,0,
116,619,0,7.68,0,0,2.88,71537.38,29.37,-0.12,-71.75,90368,0,0.36,743,0,0,
117,612,0,7.67,0,0,2.88,72055.01,29.66,-0.12,-71.73,90368,0,0.36,737,0,0,
118,606,0,7.66,0,0,2.88,72565.23,29.96,-0.12,-71.7,90368,0,0.36,732,0,0,
119,599,0,7.65,0,0,2.88,73068.06,30.26,-0.12,-71.67,90368,0,0.36,727,0,0,
120,593,0,7.63,0,0,2.88,73563.51,30.55,-0.12,-71.64,90368,0,0.36,721,0,0,
121,586,0,7.62,0,0,2.88,74051.58,30.85,-0.12,-71.61,90367,0,0.36,716,0,0,
122,580,0,7.61,0,0,2.88,74532.3,31.14,-0.12,-71.58,90367,0,0.36,711,0,0,
123,574,0,7.6,0,0,2.88,75005.67,31.43,-0.12,-71.56,90367,0,0.36,705,0,0,
124,568,0,7.59,0,0,2.88,75471.69,31.73,-0.12,-71.53,90367,0,0.36,700,0,0,
125,561,0,7.58,0,0,2.88,75930.38,32.02,-0.12,-71.5,90367,0,0.36,695,0,0,
126,555,0,7.57,0,0,2.88,76381.76,32.31,-0.13,-71.47,90367,0,0.36,690,0,0,
127,549,0,7.56,0,0,2.88,76825.82,32.6,-0.13,-71.44,90367,0,0.36,685,0,0,
128,543,0,7.55,0,0,2.88,77262.58,32.89,-0.13,-71.42,90367,0,0.36,680,0,0,
129,537,0,7.54,0,0,2.88,77692.04,33.18,-0.13,-71.39,90367,0,0.36,675,0,0,
130,531,0,7.53,0,0,2.88,78114.26,33.47,-0.13,-71.36,90367,0,0.36,671,0,0,
131,525,0,7.52,0,0,2.88,78529.21,33.76,-0.13,-71.33,90367,0,0.36,666,0,0,
132,519,0,7.51,0,0,2.88,78936.66,34.04,-0.13,-71.31,90367,0,0.36,661,0,0,
133,513,0,7.5,0,0,2.88,79337.04,34.33,-0.13,-71.28,90366,0,0.36,656,0,0,
134,507,0,7.49,0,0,2.88,79730.19,34.62,-0.13,-71.25,90366,0,0.36,652,0,0,
135,501,0,7.49,0,0,2.88,80116.02,34.9,-0.13,-71.22,90366,0,0.36,647,0,0,
136,495,0,7.48,0,0,2.88,80494.69,35.19,-0.13,-71.2,90366,0,0.36,643,0,0,
137,490,0,7.47,0,0,2.88,80866.15,35.47,-0.13,-71.17,90366,0,0.36,638,0,0,
138,484,0,7.46,0,0,2.88,81230.34,35.76,-0.13,-71.14,90366,0,0.36,634,0,0,
139,478,0,7.45,0,0,2.88,81587.33,36.04,-0.13,-71.12,90366,0,0.36,630,0,0,
140,473,0,7.44,0,0,2.88,81937.14,36.33,-0.13,-71.09,90366,0,0.36,626,0,0,
141,467,0,7.44,0,0,2.88,82279.74,36.61,-0.13,-71.06,90366,0,0.36,621,0,0,
142,462,0,7.43,0,0,2.88,82615.14,36.89,-0.13,-71.03,90366,0,0.36,617,0,0,
143,457,0,7.42,0,0,2.88,82943.37,37.17,-0.13,-71.01,90366,0,0.36,613,0,0,
144,451,0,7.42,0,0,2.88,83264.43,37.46,-0.13,-70.98,90366,0,0.36,609,0,0,
145,446,0,7.41,0,0,2.88,83578.31,37.74,-0.13,-70.95,90365,0,0.36,605,0,0,
146,441,0,7.4,0,0,2.88,83885.03,38.02,-0.13,-70.93,90365,0,0.36,602,0,0,
147,436,0,7.39,0,0,2.88,84184.6,38.3,-0.13,-70.9,90365,0,0.36,598,0,0,
148,431,0,7.39,0,0,2.88,84477.01,38.58,-0.13,-70.87,90365,0,0.36,594,0,0,
149,426,0,7.38,0,0,2.88,84762.28,38.86,-0.13,-70.85,90365,0,0.36,590,0,0,
150,421,0,7.38,0,0,2.88,85040.44,39.14,-0.13,-70.82,90365,0,0.36,587,0,0,
151,416,0,7.37,0,0,2.88,85311.47,39.42,-0.13,-70.79,90365,0,0.36,583,0,0,
152,411,0,7.36,0,0,2.88,85575.29,39.7,-0.13,-70.77,90365,0,0.36,580,0,0,
153,407,0,7.36,0,0,2.88,85832.03,39.98,-0.13,-70.74,90365,0,0.36,577,0,0,
154,402,0,7.35,0,0,2.88,86081.7,40.25,-0.13,-70.71,90365,0,0.36,573,0,0,
155,397,0,7.35,0,0,2.88,86324.21,40.53,-0.13,-70.69,90365,0,0.36,570,0,0,
156,393,0,7.34,0,0,2.88,86559.6,40.81,-0.13,-70.66,90365,0,0.36,567,0,0,
157,389,0,7.34,0,0,2.88,86787.92,41.09,-0.13,-70.63,90365,0,0.36,564,0,0,
158,384,0,7.33,0,0,2.88,87009.14,41.36,-0.13,-70.61,90364,0,0.36,561,0,0,
159,380,0,7.33,0,0,2.88,87223.25,41.64,-0.13,-70.58,90364,0,0.36,558,0,0,
160,376,0,7.32,0,0,2.88,87430.28,41.92,-0.13,-70.56,90364,0,0.36,555,0,0,
161,372,0,7.32,0,0,2.88,87630.23,42.19,-0.13,-70.53,90364,0,0.36,553,0,0,
162,368,0,7.32,0,0,2.88,87823.09,42.47,-0.13,-70.5,90364,0,0.36,550,0,0,
163,365,0,7.31,0,0,2.88,88008.87,42.74,-0.13,-70.48,90364,0,0.36,548,0,0,
164,361,0,7.31,0,0,2.88,88187.59,43.02,-0.13,-70.45,90364,0,0.36,545,0,0,
165,357,0,7.3,0,0,2.88,88359.24,43.29,-0.14,-70.42,90364,0,0.36,543,0,0,
166,354,0,7.3,0,0,2.88,88523.81,43.57,-0.14,-70.4,90364,0,0.36,541,0,0,
167,351,0,7.3,0,0,2.88,88681.33,43.84,-0.14,-70.37,90364,0,0.36,538,0,0,
168,348,0,7.29,0,0,2.88,88831.78,44.12,-0.14,-70.35,90364,0,0.36,536,0,0,
169,344,0,7.29,0,0,2.88,88975.18,44.39,-0.14,-70.32,90364,0,0.36,534,0,0,
170,342,0,7.29,0,0,2.88,89111.52,44.66,-0.14,-70.29,90364,0,0.36,532,0,0,
171,339,0,7.28,0,0,2.88,89243.33,44.94,-0.14,-70.27,90364,0,0.36,531,0,0,
172,336,0,7.28,0,0,2.88,89363.06,45.21,-0.14,-70.24,90363,0,0.36,529,0,0,
173,334,0,7.28,0,0,2.88,89478.26,45.49,-0.14,-70.21,90363,0,0.36,527,0,0,
174,331,0,7.28,0,0,2.88,89586.41,45.76,-0.14,-70.19,90363,0,0.36,526,0,0,
175,329,0,7.27,0,0,2.88,89689.47,46.04,-0.14,-70.16,90363,0,0.36,524,0,0,
176,327,0,7.27,0,0,2.88,89781.59,46.31,-0.14,-70.14,90363,0,0.36,523,0,0,
177,325,0,7.27,0,0,2.88,89870.3,46.58,-0.14,-70.11,90363,0,0.36,522,0,0,
178,323,0,7.27,0,0,2.88,89948.63,46.85,-0.14,-70.08,90363,0,0.36,521,0,0,
179,321,0,7.27,0,0,2.88,90021.59,47.12,-0.14,-70.06,90363,0,0.36,520,0,0,
180,320,0,7.27,0,0,2.88,90087.52,47.4,-0.14,-70.03,90363,0,0.36,519,0,0,
181,318,0,7.26,0,0,2.88,90146.42,47.67,-0.14,-70.01,90363,0,0.36,518,0,0,
182,317,0,7.26,0,0,2.88,90198.28,47.94,-0.14,-69.98,90363,0,0.36,517,0,0,
183,316,0,7.26,0,0,2.88,90243.95,48.22,-0.14,-69.95,90363,0,0.36,516,0,0,
184,315,0,7.26,0,0,2.88,90280.93,48.49,-0.14,-69.93,90363,0,0.36,516,0,0,
185,315,0,7.26,0,0,2.88,90311.71,48.76,-0.14,-69.9,90363,0,0.36,515,0,0,
186,314,0,7.26,0,0,2.88,90335.46,49.03,-0.14,-69.88,90362,0,0.36,515,0,0,
187,314,0,7.26,0,0,2.88,90352.19,49.3,-0.14,-69.85,90362,0,0.36,515,0,0,
188,313,0,7.26,0,0,2.88,90361.89,49.58,-0.14,-69.82,90362,0,0.36,515,0,0,
189,313,0,7.26,0,0,2.88,90364.56,49.85,-0.14,-69.8,90362,0,0.36,515,0,0,
190,313,0,7.26,0,0,2.88,90360.21,50.12,-0.14,-69.77,90362,0,0.36,515,0,0,
191,314,0,7.26,0,0,2.88,90348.83,50.39,-0.14,-69.75,90362,0,0.36,515,0,0,
192,314,0,7.26,0,0,2.88,90330.42,50.67,-0.14,-69.72,90362,0,0.36,515,0,0,
193,315,0,7.26,0,0,2.88,90304.99,50.94,-0.14,-69.69,90362,0,0.36,515,0,0,
194,315,0,7.26,0,0,2.88,90272.53,51.21,-0.14,-69.67,90362,0,0.36,516,0,0,
195,316,0,7.26,0,0,2.88,90233.04,51.48,-0.14,-69.64,90362,0,0.36,516,0,0,
196,317,0,7.26,0,0,2.88,90186.52,51.76,-0.14,-69.62,90362,0,0.36,517,0,0,
197,319,0,7.26,0,0,2.88,90132.97,52.03,-0.14,-69.59,90362,0,0.36,518,0,0,
198,320,0,7.27,0,0,2.88,90072.44,52.3,-0.14,-69.56,90362,0,0.36,519,0,0,
199,322,0,7.27,0,0,2.88,90004.91,52.57,-0.14,-69.54,90362,0,0.36,520,0,0,
200,323,0,7.27,0,0,2.88,89930.26,52.85,-0.14,-69.51,90361,0,0.36,521,0,0,
201,325,0,7.27,0,0,2.88,89848.56,53.12,-0.14,-69.49,90361,0,0.36,522,0,0,
202,327,0,7.27,0,0,2.88,89759.87,53.39,-0.14,-69.46,90361,0,0.36,523,0,0,
203,329,0,7.27,0,0,2.88,89662.13,53.67,-0.14,-69.43,90361,0,0.36,525,0,0,
204,332,0,7.28,0,0,2.88,89561.31,53.94,-0.14,-69.41,90361,0,0.36,526,0,0,
205,334,0,7.28,0,0,2.88,89451.47,54.21,-0.15,-69.38,90361,0,0.36,528,0,0,
206,337,0,7.28,0,0,2.88,89334.6,54.49,-0.15,-69.35,90361,0,0.36,529,0,0,
207,339,0,7.28,0,0,2.88,89208.12,54.77,-0.15,-69.33,90361,0,0.36,531,0,0,
208,342,0,7.29,0,0,2.88,89082.37,55.03,-0.15,-69.3,90361,0,0.36,533,0,0,
209,345,0,7.29,0,0,2.88,88938.83,55.31,-0.15,-69.28,90361,0,0.36,535,0,0,
210,348,0,7.29,0,0,2.88,88799.55,55.58,-0.15,-69.25,90361,0,0.36,537,0,0,
211,351,0,7.3,0,0,2.88,88641.32,55.86,-0.15,-69.22,90361,0,0.36,539,0,0,
212,355,0,7.3,0,0,2.88,88488.48,56.13,-0.15,-69.2,90361,0,0.36,541,0,0,
213,358,0,7.3,0,0,2.88,88315.54,56.41,-0.15,-69.17,90360,0,0.36,543,0,0,
214,362,0,7.31,0,0,2.88,88149.12,56.68,-0.15,-69.15,90360,0,0.36,546,0,0,
215,366,0,7.31,0,0,2.88,87961.53,56.96,-0.15,-69.12,90360,0,0.36,548,0,0,
216,369,0,7.31,0,0,2.88,87781.53,57.23,-0.15,-69.09,90360,0,0.36,551,0,0,
217,373,0,7.32,0,0,2.88,87579.17,57.51,-0.15,-69.07,90360,0,0.36,553,0,0,
218,377,0,7.32,0,0,2.88,87385.62,57.78,-0.15,-69.04,90360,0,0.36,556,0,0,
219,381,0,7.33,0,0,2.88,87168.55,58.07,-0.15,-69.01,90360,0,0.36,559,0,0,
220,385,0,7.33,0,0,2.88,86961.35,58.33,-0.15,-68.99,90360,0,0.36,562,0,0,
221,390,0,7.34,0,0,2.88,86729.53,58.62,-0.15,-68.96,90360,0,0.36,565,0,0,
222,394,0,7.34,0,0,2.88,86508.73,58.89,-0.15,-68.93,90360,0,0.36,568,0,0,
223,399,0,7.35,0,0,2.88,86262.13,59.17,-0.15,-68.91,90360,0,0.36,571,0,0,
224,403,0,7.35,0,0,2.88,86027.68,59.44,-0.15,-68.88,90360,0,0.36,574,0,0,
225,408,0,7.36,0,0,2.88,85766.3,59.73,-0.15,-68.85,90360,0,0.36,577,0,0,
226,412,0,7.36,0,0,2.88,85518.19,60,-0.15,-68.83,90360,0,0.36,581,0,0,
227,417,0,7.37,0,0,2.88,85241.98,60.29,-0.15,-68.8,90359,0,0.36,584,0,0,
228,422,0,7.37,0,0,2.88,84980.19,60.56,-0.15,-68.78,90359,0,0.36,588,0,0,
229,427,0,7.38,0,0,2.88,84689.16,60.85,-0.15,-68.75,90359,0,0.36,591,0,0,
230,432,0,7.39,0,0,2.88,84413.66,61.11,-0.15,-68.72,90359,0,0.36,595,0,0,
231,437,0,7.39,0,0,2.88,84107.77,61.41,-0.15,-68.69,90359,0,0.36,599,0,0,
232,442,0,7.4,0,0,2.88,83818.55,61.68,-0.15,-68.67,90359,0,0.36,602,0,0,
233,447,0,7.41,0,0,2.88,83497.78,61.97,-0.15,-68.64,90359,0,0.36,606,0,0,
234,452,0,7.41,0,0,2.88,83194.81,62.24,-0.15,-68.61,90359,0,0.36,610,0,0,
235,458,0,7.42,0,0,2.88,82859.13,62.53,-0.15,-68.59,90359,0,0.36,614,0,0,
236,463,0,7.43,0,0,2.88,82542.38,62.8,-0.15,-68.56,90359,0,0.36,618,0,0,
237,469,0,7.44,0,0,2.88,82191.77,63.1,-0.15,-68.53,90359,0,0.36,622,0,0,
238,474,0,7.44,0,0,2.88,81861.22,63.37,-0.15,-68.51,90359,0,0.36,626,0,0,
239,480,0,7.45,0,0,2.88,81495.64,63.66,-0.15,-68.48,90359,0,0.36,631,0,0,
240,485,0,7.46,0,0,2.88,81151.27,63.94,-0.15,-68.45,90358,0,0.36,635,0,0,
241,491,0,7.47,0,0,2.88,80770.69,64.23,-0.15,-68.42,90358,0,0.36,639,0,0,
242,497,0,7.48,0,0,2.88,80412.46,64.51,-0.15,-68.4,90358,0,0.36,644,0,0,
243,503,0,7.48,0,0,2.88,80016.86,64.8,-0.15,-68.37,90358,0,0.36,648,0,0,
244,508,0,7.49,0,0,2.88,79644.75,65.08,-0.15,-68.34,90358,0,0.36,653,0,0,
245,514,0,7.5,0,0,2.88,79234.09,65.38,-0.16,-68.31,90358,0,0.36,658,0,0,
246,520,0,7.51,0,0,2.88,78848.06,65.65,-0.16,-68.29,90358,0,0.36,662,0,0,
247,526,0,7.52,0,0,2.88,78422.31,65.95,-0.16,-68.26,90358,0,0.36,667,0,0,
248,532,0,7.53,0,0,2.88,78022.33,66.23,-0.16,-68.23,90358,0,0.36,672,0,0,
249,538,0,7.54,0,0,2.88,77581.45,66.53,-0.16,-68.2,90358,0,0.36,677,0,0,
250,544,0,7.55,0,0,2.88,77167.49,66.81,-0.16,-68.18,90358,0,0.36,681,0,0,
251,550,0,7.56,0,0,2.88,76711.45,67.11,-0.16,-68.15,90358,0,0.36,686,0,0,
252,556,0,7.57,0,0,2.88,76283.47,67.39,-0.16,-68.12,90357,0,0.36,691,0,0,
253,563,0,7.58,0,0,2.88,75812.23,67.69,-0.16,-68.09,90357,0,0.36,696,0,0,
254,569,0,7.59,0,0,2.88,75370.2,67.97,-0.16,-68.07,90357,0,0.36,701,0,0,
255,575,0,7.6,0,0,2.88,74883.71,68.28,-0.16,-68.04,90357,0,0.36,707,0,0,
