Time,Velocity,GForce,Acceleration,Thrust,TWR,Mass,AltitudeFromTerrain,DownrangeDistance,Latitude,Longitude,Apoapsis,Periapsis,Inclination,OrbitalVelocity,VesselDeltaV,Pressure,
1,6,2.01,9.97,106.1,2.02,5.36,79.58,0,-0.1,-74.56,79,0,0.1,175,1524,100.17,
2,10,1.26,2.59,64.01,1.22,5.33,87.88,0,-0.1,-74.56,91,0,0.1,175,1511,100.05,
3,10,1.15,1.5,60.67,1.17,5.31,98.24,0,-0.1,-74.56,101,0,0.1,175,1501,99.9,
4,12,1.15,1.52,60.69,1.17,5.28,108.96,0,-0.1,-74.56,114,0,0.1,175,1492,99.74,
5,13,1.08,0.81,55.66,1.08,5.26,121.77,0,-0.1,-74.56,128,0,0.1,175,1481,99.55,
6,14,1.08,0.85,55.68,1.08,5.24,134.38,0,-0.1,-74.56,141,0,0.1,175,1470,99.36,
7,14,1.09,0.91,55.71,1.09,5.21,148.95,0,-0.1,-74.56,157,0,0.1,175,1461,99.15,
8,15,1.09,0.95,55.74,1.09,5.19,163.27,0,-0.1,-74.56,173,0,0.1,176,1450,98.94,
9,16,1.1,1.01,55.77,1.1,5.17,179.79,0,-0.1,-74.56,191,0,0.1,176,1440,98.69,
10,17,1.1,1.06,55.8,1.1,5.15,196.01,0,-0.1,-74.56,209,0,0.1,176,1431,98.46,
11,19,1.11,1.11,55.84,1.11,5.12,214.7,0,-0.1,-74.56,230,0,0.1,176,1420,98.18,
12,20,1.11,1.16,55.87,1.12,5.1,233.03,0,-0.1,-74.56,250,0,0.1,176,1411,97.91,
13,21,1.12,1.22,55.91,1.12,5.08,254.11,0,-0.1,-74.56,274,0,0.1,176,1401,97.61,
14,22,1.12,1.27,55.95,1.13,5.06,274.75,0,-0.1,-74.56,297,0,0.1,176,1392,97.31,
15,23,1.13,1.33,56,1.13,5.03,298.43,0,-0.1,-74.56,324,0,0.1,176,1381,96.96,
16,25,1.13,1.38,56.05,1.14,5.01,321.58,0,-0.1,-74.56,351,0,0.1,177,1370,96.63,
17,26,1.14,1.44,56.09,1.15,4.99,348.11,0,-0.1,-74.56,381,0,0.1,177,1361,96.25,
18,28,1.15,1.48,56.15,1.15,4.97,373.98,0,-0.1,-74.56,411,0,0.1,177,1351,95.88,
19,29,1.15,1.62,56.21,1.16,4.94,403.56,0,-0.1,-74.56,445,0,0.1,178,1340,95.45,
20,31,1.16,1.75,56.26,1.16,4.92,432.34,0,-0.1,-74.56,478,0,0.1,178,1331,95.04,
21,32,1.16,1.69,56.33,1.17,4.9,465.19,0,-0.1,-74.56,517,0,0.1,179,1320,94.58,
22,34,1.17,1.8,56.38,1.18,4.88,497.12,0,-0.1,-74.56,554,0,0.1,180,1311,94.12,
23,36,1.18,1.82,56.45,1.19,4.85,533.51,0,-0.1,-74.56,597,0,0.1,181,1300,93.61,
24,38,1.18,1.88,56.52,1.19,4.83,568.81,0,-0.1,-74.56,639,0,0.1,181,1292,93.11,
25,40,1.19,1.94,56.6,1.2,4.81,608.97,0.01,-0.1,-74.56,687,0,0.1,182,1281,92.55,
26,42,1.19,1.99,56.68,1.21,4.78,647.86,0.01,-0.1,-74.56,734,0,0.1,183,1270,92.01,
27,44,1.2,2.05,56.75,1.21,4.76,692.04,0.01,-0.1,-74.56,787,0,0.1,184,1261,91.4,
28,46,1.2,2.1,56.84,1.22,4.74,734.76,0.02,-0.1,-74.56,839,0,0.1,185,1250,90.81,
29,48,1.21,2.17,56.94,1.23,4.72,783.21,0.02,-0.1,-74.56,898,0,0.1,186,1239,90.15,
30,53,1.67,6.62,79.49,1.73,4.69,830.89,0.03,-0.1,-74.56,970,0,0.1,188,1228,89.5,
31,60,1.71,7.07,79.64,1.74,4.66,889.33,0.03,-0.1,-74.55,1071,0,0.1,190,1212,88.71,
32,67,1.72,7.21,79.79,1.76,4.63,950.05,0.04,-0.1,-74.55,1176,0,0.1,194,1199,87.9,
33,74,1.73,7.28,79.99,1.77,4.59,1023.24,0.04,-0.1,-74.55,1303,0,0.1,197,1184,86.93,
34,82,1.74,7.52,80.16,1.79,4.56,1097.68,0.05,-0.1,-74.55,1432,0,0.11,202,1171,85.95,
35,89,1.75,7.52,80.4,1.81,4.53,1185.86,0.06,-0.1,-74.55,1587,0,0.11,207,1155,84.8,
36,97,1.76,7.73,80.66,1.83,4.5,1274.27,0.08,-0.1,-74.55,1742,0,0.11,212,1140,83.66,
37,104,1.76,7.78,80.88,1.84,4.47,1377.71,0.09,-0.1,-74.55,1925,0,0.12,217,1127,82.34,
38,112,1.77,8,81.17,1.86,4.44,1480.31,0.11,-0.1,-74.55,2106,0,0.12,223,1111,81.05,
39,120,1.78,8.06,81.48,1.89,4.4,1599.19,0.13,-0.1,-74.55,2317,0,0.13,230,1096,79.57,
40,128,1.78,8.28,81.75,1.9,4.37,1716.05,0.15,-0.1,-74.54,2524,0,0.13,236,1083,78.14,
41,136,1.8,8.3,82.1,1.93,4.34,1850.35,0.18,-0.1,-74.54,2763,0,0.14,244,1067,76.52,
42,144,1.8,8.46,82.39,1.95,4.31,1981.57,0.21,-0.1,-74.54,2998,0,0.15,251,1054,74.97,
43,153,1.81,8.61,82.77,1.97,4.28,2131.61,0.24,-0.1,-74.53,3266,0,0.16,259,1038,73.22,
44,161,1.82,8.65,83.08,1.99,4.25,2277.45,0.28,-0.1,-74.53,3530,0,0.17,266,1025,71.56,
45,169,1.82,8.6,83.5,2.02,4.22,2443.53,0.32,-0.1,-74.53,3832,0,0.18,274,1009,69.7,
46,178,1.83,8.7,83.92,2.04,4.19,2604.37,0.37,-0.1,-74.52,4127,0,0.18,281,992,67.94,
47,187,1.84,8.75,84.27,2.07,4.15,2786.89,0.42,-0.1,-74.52,4463,0,0.19,289,979,65.98,
48,195,1.86,9.14,84.71,2.09,4.12,2963.1,0.47,-0.1,-74.51,4790,0,0.2,297,962,64.14,
49,205,1.88,9.69,85.17,2.12,4.09,3162.38,0.53,-0.1,-74.51,5158,0,0.21,306,945,62.1,
50,213,1.89,9.88,85.55,2.15,4.06,3353.94,0.59,-0.1,-74.5,5509,0,0.22,315,930,60.19,
51,223,1.9,10.19,86.02,2.18,4.03,3569.8,0.66,-0.1,-74.49,5911,0,0.23,325,913,58.1,
52,232,1.91,9.76,86.41,2.2,4,3776.87,0.73,-0.1,-74.49,6302,0,0.24,334,898,56.15,
53,243,1.92,10.13,86.9,2.23,3.96,4009.87,0.81,-0.1,-74.48,6743,0,0.25,345,879,54.02,
54,252,1.93,10.03,87.29,2.26,3.93,4233.07,0.89,-0.1,-74.47,7171,0,0.26,354,864,52.04,
55,266,2.81,18.56,125.96,3.29,3.9,4484.49,0.98,-0.1,-74.46,7749,0,0.27,367,842,49.88,
56,298,4.66,36.62,191.97,5.1,3.83,4736.98,1.08,-0.1,-74.45,8832,0,0.29,396,799,47.79,
57,336,4.66,36.61,192.97,5.21,3.76,5045.39,1.19,-0.1,-74.44,10274,0,0.31,431,759,45.34,
58,372,4.77,37.64,194.28,5.35,3.7,5363.25,1.31,-0.1,-74.43,11803,0,0.33,464,708,42.91,
59,411,4.84,38.4,195.67,5.5,3.63,5744.54,1.45,-0.1,-74.42,13683,0,0.35,501,655,40.14,
60,449,5.04,40.57,196.85,5.63,3.56,6131.41,1.6,-0.1,-74.41,15647,0,0.37,538,611,37.48,
61,492,5.15,41.53,198.34,5.79,3.49,6589.45,1.77,-0.1,-74.39,18059,0,0.38,579,555,34.52,
62,533,5.32,43.22,199.58,5.93,3.42,7049.53,1.94,-0.1,-74.37,20584,0,0.4,619,508,31.74,
63,579,5.51,45.15,201.11,6.1,3.35,7590.08,2.14,-0.1,-74.35,23696,0,0.42,664,448,28.71,
64,624,5.68,46.76,202.33,6.25,3.29,8129.63,2.35,-0.1,-74.33,26950,0,0.43,707,398,25.92,
65,674,5.83,48.3,203.86,6.44,3.21,8759.79,2.59,-0.1,-74.31,30915,0,0.44,755,332,22.95,
66,721,6,49.93,205.31,6.64,3.15,9385.03,2.82,-0.1,-74.29,35032,0,0.46,802,265,20.3,
67,774,6.19,51.87,206.42,6.81,3.08,10111.36,3.1,-0.1,-74.26,40056,0,0.47,854,208,17.6,
68,825,6.39,53.77,207.68,7.02,3.01,10828.76,3.37,-0.1,-74.24,45286,0,0.48,904,136,15.29,
69,883,6.6,55.87,208.83,7.24,2.94,11658.84,3.68,-0.1,-74.21,51677,0,0.49,961,61,13,
70,929,4.47,35.04,0,0,2.88,12475.13,3.98,-0.1,-74.18,57343,0,0.5,1006,0,11.08,
71,914,0.53,14.08,0,0,2.88,13369.95,4.32,-0.1,-74.15,56775,0,0.5,992,0,9.29,
72,901,0.47,13.46,0,0,2.88,14183.07,4.62,-0.1,-74.12,56327,0,0.5,980,0,7.92,
73,888,0.42,12.85,0,0,2.88,15034.06,4.94,-0.1,-74.09,55919,0,0.5,967,0,6.7,
74,876,0.35,12.22,0,0,2.88,15839.7,5.25,-0.1,-74.06,55596,0,0.5,956,0,5.72,
75,864,0.29,11.66,0,0,2.88,16666.33,5.56,-0.1,-74.03,55320,0,0.5,945,0,4.87,
76,853,0.26,11.25,0,0,2.88,17449.59,5.86,-0.1,-74,55102,0,0.49,934,0,4.18,
77,842,0.22,10.88,0,0,2.88,18253.81,6.17,-0.1,-73.97,54913,0,0.49,924,0,3.57,
78,832,0.19,10.57,0,0,2.88,19016.25,6.46,-0.11,-73.94,54763,0,0.49,914,0,3.08,
79,822,0.16,10.31,0,0,2.88,19799.43,6.77,-0.11,-73.91,54633,0,0.49,905,0,2.65,
80,812,0.14,10.1,0,0,2.88,20542.15,7.06,-0.11,-73.88,54529,0,0.49,896,0,2.3,
81,802,0.12,9.91,0,0,2.88,21320.09,7.36,-0.11,-73.85,54436,0,0.49,887,0,1.99,
82,793,0.11,9.75,0,0,2.88,22028.99,7.64,-0.11,-73.83,54364,0,0.49,878,0,1.74,
83,784,0.09,9.61,0,0,2.88,22787.15,7.94,-0.11,-73.8,54299,0,0.49,869,0,1.5,
84,775,0.08,9.5,0,0,2.88,23478.04,8.22,-0.11,-73.77,54249,0,0.49,861,0,1.32,
85,766,0.07,9.39,0,0,2.88,24216.93,8.52,-0.11,-73.74,54203,0,0.49,853,0,1.15,
86,757,0.06,9.31,0,0,2.88,24890.23,8.79,-0.11,-73.72,54167,0,0.49,845,0,1.01,
87,748,0.06,9.23,0,0,2.88,25610.23,9.08,-0.11,-73.69,54134,0,0.49,837,0,0.89,
88,740,0.05,9.16,0,0,2.88,26266.24,9.35,-0.11,-73.66,54108,0,0.49,829,0,0.79,
89,731,0.05,9.1,0,0,2.88,26967.65,9.64,-0.11,-73.64,54085,0,0.49,821,0,0.69,
90,723,0.04,9.05,0,0,2.88,27606.62,9.91,-0.11,-73.61,54066,0,0.49,814,0,0.62,
91,714,0.04,8.99,0,0,2.88,28289.68,10.2,-0.11,-73.58,54050,0,0.49,806,0,0.55,
92,706,0.03,8.95,0,0,2.88,28911.79,10.47,-0.11,-73.56,54037,0,0.49,799,0,0.49,
93,697,0.03,8.91,0,0,2.88,29576.69,10.75,-0.11,-73.53,54025,0,0.49,791,0,0.43,
94,689,0.03,8.87,0,0,2.88,30182.12,11.02,-0.11,-73.51,54015,0,0.49,784,0,0.39,
95,681,0.02,8.84,0,0,2.88,30829.01,11.3,-0.11,-73.48,54006,0,0.49,776,0,0.35,
96,673,0.02,8.81,0,0,2.88,31417.87,11.56,-0.11,-73.45,54000,0,0.49,769,0,0.32,
97,665,0.02,8.78,0,0,2.88,32046.88,11.84,-0.11,-73.43,53993,0,0.49,762,0,0.28,
98,657,0.02,8.75,0,0,2.88,32619.29,12.1,-0.11,-73.4,53988,0,0.49,755,0,0.26,
99,648,0.02,8.73,0,0,2.88,33230.53,12.38,-0.11,-73.38,53984,0,0.49,748,0,0.23,
100,641,0.02,8.7,0,0,2.88,33786.59,12.64,-0.11,-73.35,53980,0,0.49,741,0,0.21,
101,633,0.01,8.68,0,0,2.88,34380.15,12.91,-0.11,-73.32,53977,0,0.49,734,0,0.19,
102,625,0.01,8.66,0,0,2.88,34919.93,13.17,-0.11,-73.3,53975,0,0.49,727,0,0.18,
103,617,0.01,8.64,0,0,2.88,35495.91,13.45,-0.11,-73.27,53972,0,0.49,720,0,0.16,
104,609,0.01,8.62,0,0,2.88,36019.5,13.7,-0.11,-73.25,53970,0,0.49,714,0,0.15,
105,601,0.01,8.61,0,0,2.88,36577.96,13.97,-0.12,-73.22,53968,0,0.49,707,0,0.13,
106,594,0.01,8.59,0,0,2.88,37085.41,14.23,-0.12,-73.2,53967,0,0.49,700,0,0.12,
107,586,0.01,8.57,0,0,2.88,37626.43,14.5,-0.12,-73.17,53966,0,0.49,694,0,0.11,
108,579,0.01,8.56,0,0,2.88,38117.81,14.75,-0.12,-73.15,53964,0,0.49,687,0,0.11,
109,571,0.01,8.54,0,0,2.88,38641.45,15.02,-0.12,-73.12,53963,0,0.49,681,0,0.1,
110,563,0.01,8.53,0,0,2.88,39116.81,15.27,-0.12,-73.1,53962,0,0.49,675,0,0.09,
111,556,0.01,8.51,0,0,2.88,39623.14,15.54,-0.12,-73.07,53962,0,0.49,668,0,0.08,
112,548,0.01,8.5,0,0,2.88,40082.54,15.78,-0.12,-73.05,53961,0,0.49,662,0,0.08,
113,541,0.01,8.48,0,0,2.88,40571.6,16.05,-0.12,-73.03,53960,0,0.49,655,0,0.07,
114,534,0.01,8.47,0,0,2.88,41015.08,16.3,-0.12,-73,53960,0,0.49,650,0,0.07,
115,526,0.01,8.46,0,0,2.88,41486.93,16.56,-0.12,-72.98,53959,0,0.49,643,0,0.06,
116,519,0.01,8.44,0,0,2.88,41914.56,16.81,-0.12,-72.95,53959,0,0.49,637,0,0.06,
117,511,0.01,8.43,0,0,2.88,42369.24,17.07,-0.12,-72.93,53959,0,0.49,631,0,0.06,
118,504,0.01,8.42,0,0,2.88,42781.05,17.32,-0.12,-72.9,53958,0,0.49,626,0,0.05,
119,497,0.01,8.41,0,0,2.88,43218.63,17.58,-0.12,-72.88,53958,0,0.49,620,0,0.05,
120,490,0.01,8.4,0,0,2.88,43614.66,17.82,-0.12,-72.86,53958,0,0.49,614,0,0.05,
121,483,0.01,8.38,0,0,2.88,44035.18,18.08,-0.12,-72.83,53958,0,0.49,608,0,0.04,
122,476,0.01,8.37,0,0,2.88,44415.48,18.33,-0.12,-72.81,53958,0,0.49,603,0,0.04,
123,469,0,8.36,0,0,2.88,44818.97,18.59,-0.12,-72.78,53957,0,0.49,597,0,0.04,
124,462,0,8.35,0,0,2.88,45183.58,18.83,-0.12,-72.76,53957,0,0.49,592,0,0.04,
125,455,0,8.34,0,0,2.88,45570.09,19.09,-0.12,-72.74,53957,0,0.49,586,0,0.03,
126,449,0,8.33,0,0,2.88,45919.05,19.33,-0.12,-72.71,53957,0,0.49,581,0,0.03,
127,442,0,8.32,0,0,2.88,46288.62,19.59,-0.12,-72.69,53957,0,0.49,576,0,0.03,
128,435,0,8.31,0,0,2.88,46621.95,19.82,-0.12,-72.66,53957,0,0.49,571,0,0.03,
129,428,0,8.3,0,0,2.88,46974.62,20.08,-0.12,-72.64,53957,0,0.49,565,0,0.03,
130,422,0,8.29,0,0,2.88,47292.38,20.32,-0.12,-72.62,53957,0,0.49,561,0,0.02,
131,415,0,8.29,0,0,2.88,47628.18,20.58,-0.12,-72.59,53957,0,0.49,556,0,0.02,
132,409,0,8.28,0,0,2.88,47930.38,20.81,-0.12,-72.57,53958,0,0.49,551,0,0.02,
133,403,0,8.27,0,0,2.88,48249.35,21.07,-0.12,-72.55,53958,0,0.49,546,0,0.02,
134,397,0,8.26,0,0,2.88,48536.03,21.3,-0.12,-72.52,53958,0,0.49,542,0,0.02,
135,390,0,8.25,0,0,2.88,48838.2,21.56,-0.13,-72.5,53958,0,0.49,537,0,0.02,
136,384,0,8.25,0,0,2.88,49109.39,21.79,-0.13,-72.48,53958,0,0.49,533,0,0.02,
137,378,0,8.24,0,0,2.88,49394.79,22.05,-0.13,-72.45,53958,0,0.49,528,0,0.02,
138,372,0,8.23,0,0,2.88,49650.51,22.28,-0.13,-72.43,53958,0,0.49,524,0,0.02,
139,366,0,8.23,0,0,2.88,49919.17,22.54,-0.13,-72.41,53958,0,0.49,520,0,0.02,
140,361,0,8.22,0,0,2.88,50159.44,22.77,-0.13,-72.38,53958,0,0.49,516,0,0.02,
141,355,0,8.21,0,0,2.88,50406.62,23.02,-0.13,-72.36,53958,0,0.49,512,0,0.01,
142,350,0,8.21,0,0,2.88,50636.24,23.25,-0.13,-72.34,53958,0,0.49,508,0,0.01,
143,344,0,8.2,0,0,2.88,50867.05,23.5,-0.13,-72.31,53958,0,0.49,504,0,0.01,
144,339,0,8.2,0,0,2.88,51080.95,23.74,-0.13,-72.29,53958,0,0.49,500,0,0.01,
145,334,0,8.19,0,0,2.88,51295.41,23.99,-0.13,-72.27,53958,0,0.49,497,0,0.01,
146,329,0,8.19,0,0,2.88,51493.61,24.22,-0.13,-72.24,53958,0,0.49,494,0,0.01,
147,324,0,8.18,0,0,2.88,51691.73,24.47,-0.13,-72.22,53958,0,0.49,490,0,0.01,
148,319,0,8.18,0,0,2.88,51874.25,24.7,-0.13,-72.2,53958,0,0.49,487,0,0.01,
149,314,0,8.17,0,0,2.88,52056.06,24.95,-0.13,-72.18,53958,0,0.49,484,0,0.01,
150,310,0,8.17,0,0,2.88,52222.91,25.18,-0.13,-72.15,53958,0,0.49,481,0,0.01,
151,305,0,8.16,0,0,2.88,52388.43,25.43,-0.13,-72.13,53958,0,0.49,478,0,0.01,
152,301,0,8.16,0,0,2.88,52539.63,25.66,-0.13,-72.11,53958,0,0.49,475,0,0.01,
153,297,0,8.16,0,0,2.88,52688.86,25.91,-0.13,-72.08,53958,0,0.49,473,0,0.01,
154,293,0,8.15,0,0,2.88,52827.12,26.15,-0.13,-72.06,53958,0,0.49,470,0,0.01,
155,289,0,8.15,0,0,2.88,52957.4,26.39,-0.13,-72.04,53958,0,0.49,468,0,0.01,
156,286,0,8.14,0,0,2.88,53079.72,26.63,-0.13,-72.02,53958,0,0.49,466,0,0.01,
157,283,0,8.14,0,0,2.88,53194.07,26.87,-0.13,-71.99,53958,0,0.49,464,0,0.01,
158,279,0,8.14,0,0,2.88,53300.46,27.1,-0.13,-71.97,53958,0,0.49,462,0,0.01,
159,276,0,8.14,0,0,2.88,53400.78,27.35,-0.13,-71.95,53958,0,0.49,460,0,0.01,
160,274,0,8.13,0,0,2.88,53487.64,27.58,-0.13,-71.92,53958,0,0.49,459,0,0.01,
161,271,0,8.13,0,0,2.88,53573.51,27.83,-0.13,-71.9,53958,0,0.49,457,0,0.01,
162,269,0,8.14,0,0,2.88,53645.14,28.05,-0.13,-71.88,53958,0,0.49,456,0,0.01,
163,267,0,8.14,0,0,2.88,53714.12,28.3,-0.13,-71.86,53958,0,0.49,454,0,0.01,
164,265,0,8.14,0,0,2.88,53770.32,28.53,-0.13,-71.83,53958,0,0.49,453,0,0.01,
165,264,0,8.13,0,0,2.88,53823.12,28.78,-0.14,-71.81,53958,0,0.49,452,0,0.01,
166,262,0,8.13,0,0,2.88,53864.27,29,-0.14,-71.79,53958,0,0.49,452,0,0.01,
167,261,0,8.13,0,0,2.88,53900.46,29.25,-0.14,-71.76,53957,0,0.49,451,0,0.01,
168,260,0,8.13,0,0,2.88,53926.15,29.48,-0.14,-71.74,53957,0,0.49,450,0,0.01,
169,260,0,8.13,0,0,2.88,53945.8,29.73,-0.14,-71.72,53957,0,0.49,450,0,0.01,
170,259,0,8.13,0,0,2.88,53956.33,29.96,-0.14,-71.7,53957,0,0.49,450,0,0.01,
171,259,0,8.13,0,0,2.88,53959.4,30.2,-0.14,-71.67,53957,0,0.49,450,0,0.01,
172,259,0,8.13,0,0,2.88,53954.61,30.43,-0.14,-71.65,53957,0,0.49,450,0,0.01,
173,260,0,8.13,0,0,2.88,53941.18,30.68,-0.14,-71.63,53957,0,0.49,450,0,0.01,
174,260,0,8.13,0,0,2.88,53921.13,30.91,-0.14,-71.61,53957,0,0.49,451,0,0.01,
175,261,0,8.13,0,0,2.88,53891.13,31.15,-0.14,-71.58,53957,0,0.49,451,0,0.01,
176,262,0,8.13,0,0,2.88,53855.81,31.38,-0.14,-71.56,53957,0,0.49,452,0,0.01,
177,264,0,8.14,0,0,2.88,53810.25,31.63,-0.14,-71.54,53957,0,0.49,453,0,0.01,
178,265,0,8.14,0,0,2.88,53757.54,31.86,-0.14,-71.52,53957,0,0.49,453,0,0.01,
179,267,0,8.14,0,0,2.88,53695.58,32.11,-0.14,-71.49,53957,0,0.49,455,0,0.01,
180,269,0,8.14,0,0,2.88,53628.25,32.34,-0.14,-71.47,53957,0,0.49,456,0,0.01,
181,272,0,8.14,0,0,2.88,53550.05,32.58,-0.14,-71.45,53957,0,0.49,457,0,0.01,
182,274,0,8.14,0,0,2.88,53468.88,32.81,-0.14,-71.42,53957,0,0.49,459,0,0.01,
183,277,0,8.15,0,0,2.88,53372.66,33.06,-0.14,-71.4,53957,0,0.49,460,0,0.01,
184,280,0,8.15,0,0,2.88,53276.2,33.29,-0.14,-71.38,53957,0,0.49,462,0,0.01,
185,283,0,8.15,0,0,2.88,53163.4,33.54,-0.14,-71.36,53956,0,0.49,464,0,0.01,
186,286,0,8.15,0,0,2.88,53051.63,33.77,-0.14,-71.33,53956,0,0.49,466,0,0.01,
187,290,0,8.16,0,0,2.88,52922.26,34.01,-0.14,-71.31,53956,0,0.49,468,0,0.01,
188,294,0,8.16,0,0,2.88,52795.17,34.24,-0.14,-71.29,53956,0,0.49,471,0,0.01,
189,298,0,8.16,0,0,2.88,52649.2,34.49,-0.14,-71.26,53956,0,0.49,473,0,0.01,
190,302,0,8.17,0,0,2.88,52506.79,34.72,-0.14,-71.24,53956,0,0.49,476,0,0.01,
191,306,0,8.17,0,0,2.88,52344.25,34.97,-0.14,-71.22,53956,0,0.49,478,0,0.01,
192,310,0,8.17,0,0,2.88,52186.53,35.2,-0.14,-71.2,53956,0,0.49,481,0,0.01,
193,315,0,8.18,0,0,2.88,52007.29,35.45,-0.14,-71.17,53956,0,0.49,484,0,0.01,
194,319,0,8.18,0,0,2.88,51834.19,35.68,-0.14,-71.15,53956,0,0.49,487,0,0.01,
195,324,0,8.18,0,0,2.88,51638.38,35.93,-0.14,-71.13,53956,0,0.49,490,0,0.01,
196,329,0,8.19,0,0,2.88,51449.91,36.16,-0.15,-71.1,53956,0,0.49,494,0,0.01,
197,334,0,8.19,0,0,2.88,51237.4,36.41,-0.15,-71.08,53956,0,0.49,497,0,0.01,
198,339,0,8.2,0,0,2.88,51033.57,36.64,-0.15,-71.06,53956,0,0.49,501,0,0.01,
199,345,0,8.2,0,0,2.88,50804.41,36.9,-0.15,-71.03,53956,0,0.49,504,0,0.01,
200,350,0,8.21,0,0,2.88,50585.16,37.13,-0.15,-71.01,53955,0,0.49,508,0,0.01,
201,356,0,8.21,0,0,2.88,50339.3,37.38,-0.15,-70.99,53955,0,0.49,512,0,0.01,
202,361,0,8.22,0,0,2.88,50104.65,37.61,-0.15,-70.97,53955,0,0.49,516,0,0.02,
203,367,0,8.22,0,0,2.88,49842.07,37.86,-0.15,-70.94,53955,0,0.49,520,0,0.02,
204,373,0,8.23,0,0,2.88,49591.98,38.1,-0.15,-70.92,53954,0,0.49,524,0,0.02,
205,379,0,8.24,0,0,2.88,49312.67,38.35,-0.15,-70.9,53954,0,0.49,528,0,0.02,
206,385,0,8.24,0,0,2.88,49047.12,38.58,-0.15,-70.87,53954,0,0.49,532,0,0.02,
207,391,0,8.25,0,0,2.88,48751.05,38.84,-0.15,-70.85,53953,0,0.49,537,0,0.02,
208,397,0,8.25,0,0,2.88,48470.02,39.07,-0.15,-70.83,53953,0,0.49,541,0,0.02,
210,409,0.01,8.2,0,0,0.99,47830.42,39.58,-0.15,-70.78,53915,0,0.49,550,0,0.02,
211,415,0.01,8.2,0,0,0.99,47533.06,39.81,-0.15,-70.76,53912,0,0.49,555,0,0.02,
212,421,0.01,8.2,0,0,0.99,47222.05,40.05,-0.15,-70.73,53908,0,0.49,559,0,0.02,
213,428,0.01,8.2,0,0,0.99,46876.8,40.3,-0.15,-70.71,53904,0,0.49,564,0,0.03,
214,434,0.01,8.2,0,0,0.99,46550.41,40.54,-0.15,-70.69,53899,0,0.49,569,0,0.03,
215,441,0.02,8.2,0,0,0.99,46188.47,40.8,-0.15,-70.66,53894,0,0.49,574,0,0.03,
216,447,0.02,8.2,0,0,0.99,45846.68,41.03,-0.15,-70.64,53888,0,0.49,579,0,0.03,
217,454,0.02,8.2,0,0,0.99,45468.08,41.29,-0.15,-70.62,53881,0,0.49,585,0,0.03,
218,460,0.02,8.2,0,0,0.99,45110.9,41.53,-0.15,-70.59,53874,0,0.49,590,0,0.04,
219,467,0.02,8.2,0,0,0.99,44715.62,41.78,-0.15,-70.57,53866,0,0.49,595,0,0.04,
220,474,0.02,8.2,0,0,0.99,44343.05,42.02,-0.15,-70.55,53858,0,0.49,600,0,0.04,
221,481,0.02,8.19,0,0,0.99,43931.11,42.28,-0.15,-70.52,53848,0,0.49,606,0,0.04,
222,488,0.02,8.19,0,0,0.99,43543.17,42.52,-0.15,-70.5,53838,0,0.49,611,0,0.05,
223,495,0.03,8.19,0,0,0.99,43122.91,42.77,-0.15,-70.47,53827,0,0.49,616,0,0.05,
224,501,0.03,8.18,0,0,0.99,42711.29,43.02,-0.15,-70.45,53814,0,0.49,622,0,0.05,
225,508,0.03,8.17,0,0,0.99,42274.72,43.27,-0.15,-70.43,53801,0,0.49,628,0,0.06,
226,515,0.03,8.17,0,0,0.99,41847.45,43.52,-0.15,-70.4,53786,0,0.49,633,0,0.06,
227,522,0.04,8.16,0,0,0.99,41385.64,43.78,-0.16,-70.38,53769,0,0.49,639,0,0.06,
228,529,0.04,8.15,0,0,0.99,40942.59,44.03,-0.16,-70.35,53751,0,0.49,645,0,0.07,
229,536,0.04,8.14,0,0,0.99,40473.35,44.28,-0.16,-70.33,53731,0,0.49,650,0,0.07,
230,543,0.04,8.12,0,0,0.99,40024.16,44.53,-0.16,-70.31,53710,0,0.49,656,0,0.08,
231,550,0.05,8.11,0,0,0.99,39529.29,44.79,-0.16,-70.28,53686,0,0.49,662,0,0.08,
232,557,0.05,8.09,0,0,0.99,39064.9,45.03,-0.16,-70.26,53661,0,0.49,668,0,0.09,
233,564,0.05,8.06,0,0,0.99,38553.61,45.3,-0.16,-70.23,53631,0,0.49,674,0,0.1,
234,571,0.06,8.04,0,0,0.99,38074.09,45.54,-0.16,-70.21,53601,0,0.49,679,0,0.11,
235,578,0.06,8,0,0,0.99,37546.47,45.8,-0.16,-70.18,53564,0,0.49,685,0,0.12,
236,585,0.07,7.96,0,0,0.99,37051.95,46.05,-0.16,-70.16,53527,0,0.49,691,0,0.12,
237,592,0.08,7.91,0,0,0.99,36508.16,46.31,-0.16,-70.14,53481,0,0.49,697,0,0.14,
238,599,0.08,7.86,0,0,0.99,35988.11,46.56,-0.16,-70.11,53433,0,0.49,703,0,0.15,
239,606,0.09,7.8,0,0,0.99,35449.88,46.82,-0.16,-70.09,53378,0,0.49,709,0,0.16,
240,613,0.1,7.73,0,0,0.99,34904.06,47.08,-0.16,-70.06,53317,0,0.49,714,0,0.18,
241,620,0.12,7.64,0,0,0.99,34350.73,47.33,-0.16,-70.04,53247,0,0.49,720,0,0.19,
242,626,0.13,7.54,0,0,0.99,33790,47.59,-0.16,-70.01,53169,0,0.49,726,0,0.21,
243,633,0.14,7.42,0,0,0.99,33221.95,47.85,-0.16,-69.99,53080,0,0.49,731,0,0.23,
244,639,0.16,7.28,0,0,0.99,32646.73,48.1,-0.16,-69.96,52978,0,0.49,737,0,0.26,
245,645,0.18,7.11,0,0,0.99,32064.48,48.36,-0.16,-69.94,52861,0,0.48,742,0,0.28,
246,651,0.21,6.91,0,0,0.99,31475.39,48.62,-0.16,-69.92,52727,0,0.48,747,0,0.31,
247,657,0.24,6.69,0,0,0.99,30879.66,48.88,-0.16,-69.89,52574,0,0.48,752,0,0.34,
248,663,0.27,6.43,0,0,0.99,30277.54,49.13,-0.16,-69.87,52397,0,0.48,756,0,0.38,
